V;t
290;2042
290;2044
290;2046
291;2048
290;2050
291;2052
291;2054
291;2056
291;2058
291;2060
291;2062
292;2064
292;2066
294;2068
292;2070
292;2072
292;2074
292;2076
292;2078
292;2080
293;2082
292;2084
292;2086
293;2088
292;2091
292;2093
293;2095
294;2097
293;2099
293;2101
293;2103
294;2105
294;2107
293;2109
294;2111
294;2113
292;2115
294;2117
294;2119
295;2121
295;2123
294;2125
295;2127
295;2129
295;2131
295;2134
295;2136
294;2138
294;2140
295;2142
295;2144
295;2146
294;2148
295;2150
295;2152
295;2154
295;2156
296;2158
296;2160
294;2162
296;2164
296;2166
296;2168
296;2170
301;2172
297;2174
297;2176
298;2178
297;2180
298;2182
298;2184
299;2186
300;2188
301;2190
301;2192
302;2194
301;2196
302;2198
302;2200
301;2202
302;2204
302;2206
301;2208
301;2210
301;2212
301;2214
300;2216
299;2219
300;2221
300;2223
297;2225
299;2227
299;2229
299;2231
298;2233
296;2235
298;2237
298;2239
298;2241
297;2243
297;2245
298;2247
298;2249
297;2251
297;2253
297;2255
296;2257
296;2259
295;2262
294;2264
292;2266
290;2268
288;2270
285;2272
285;2274
283;2276
281;2278
281;2280
285;2282
283;2284
285;2286
289;2288
296;2290
304;2292
316;2294
329;2296
344;2298
360;2300
376;2302
384;2304
400;2306
417;2308
431;2310
443;2312
452;2314
457;2316
458;2318
454;2320
448;2322
442;2324
433;2326
426;2328
420;2330
414;2332
406;2334
404;2336
398;2338
393;2340
388;2342
382;2344
378;2347
373;2349
366;2351
362;2353
357;2355
351;2357
346;2359
342;2361
337;2363
333;2365
328;2367
325;2369
320;2371
316;2373
313;2375
310;2377
307;2379
303;2381
300;2383
298;2385
296;2387
293;2390
293;2392
288;2394
286;2396
284;2398
282;2400
280;2402
279;2404
278;2406
276;2408
275;2410
274;2412
273;2414
271;2416
270;2418
270;2420
269;2422
269;2424
268;2426
268;2428
267;2430
267;2432
266;2434
266;2436
266;2438
266;2440
266;2442
264;2444
266;2446
266;2448
267;2450
266;2452
266;2454
267;2456
268;2458
268;2460
268;2462
268;2464
269;2466
270;2468
271;2470
272;2472
272;2475
274;2477
274;2479
274;2481
276;2483
276;2485
277;2487
278;2489
278;2491
281;2493
281;2495
283;2497
284;2499
287;2501
286;2503
288;2505
290;2507
290;2509
292;2511
294;2513
295;2515
297;2518
299;2520
300;2522
302;2524
304;2526
305;2528
308;2530
310;2532
312;2534
314;2536
315;2538
317;2540
319;2542
321;2544
323;2546
324;2548
326;2550
328;2552
329;2554
330;2556
332;2558
332;2560
334;2562
339;2564
337;2566
338;2568
338;2570
339;2572
339;2574
339;2576
338;2578
338;2580
337;2582
336;2584
334;2586
332;2588
330;2590
328;2592
326;2594
324;2596
322;2598
319;2600
316;2603
314;2605
312;2607
308;2609
308;2611
304;2613
301;2615
298;2617
296;2619
293;2621
292;2623
289;2625
288;2627
285;2629
283;2631
280;2633
279;2635
278;2637
276;2639
274;2641
273;2643
272;2646
271;2648
269;2650
268;2652
267;2654
266;2656
265;2658
265;2660
264;2662
263;2664
263;2666
262;2668
261;2670
261;2672
260;2674
260;2676
262;2678
259;2680
259;2682
258;2684
259;2686
259;2688
258;2690
259;2692
259;2694
258;2696
258;2698
259;2700
259;2702
259;2704
259;2706
259;2708
258;2710
259;2712
260;2714
260;2716
260;2718
261;2720
261;2722
261;2724
261;2726
261;2728
261;2731
262;2733
263;2735
263;2737
263;2739
264;2741
293;2
290;4
290;6
289;8
290;10
290;12
291;14
291;16
291;18
291;20
291;22
292;24
292;26
291;28
292;30
292;32
292;34
292;36
292;38
292;40
292;43
292;45
292;47
295;49
293;51
293;53
293;55
293;57
294;59
293;61
294;63
294;65
294;67
294;69
294;71
294;73
295;75
295;77
294;79
295;81
295;83
295;86
295;88
296;90
295;92
295;94
296;96
295;98
295;100
295;102
296;104
295;106
296;108
296;110
296;112
296;114
298;116
296;118
296;120
296;122
296;124
296;126
297;128
297;130
297;132
296;134
297;136
297;138
296;140
296;142
297;144
297;146
296;148
297;150
296;152
296;154
296;156
298;158
297;160
297;162
297;164
297;166
298;168
297;171
298;173
298;175
298;177
298;179
298;181
298;183
298;185
298;187
300;189
300;191
301;193
302;195
301;197
302;199
303;201
302;203
303;205
303;207
303;209
303;211
303;214
302;216
302;218
302;220
302;222
302;224
303;226
301;228
301;230
300;232
300;234
300;236
300;238
299;240
300;242
299;244
298;246
298;248
298;250
298;252
298;254
297;256
296;258
297;260
296;262
297;264
296;266
297;268
295;270
293;272
291;274
289;276
288;278
285;280
283;282
281;284
279;286
278;288
277;290
278;292
279;294
283;296
287;299
296;301
306;303
318;305
332;307
347;309
363;311
378;313
395;315
411;317
425;319
437;321
447;323
453;325
455;327
454;329
450;331
443;333
436;335
431;337
425;339
421;342
416;344
410;346
406;348
400;350
395;352
389;354
383;356
377;358
371;360
365;362
359;364
354;366
348;368
343;370
338;372
334;374
329;376
324;378
320;380
313;382
313;384
309;386
306;388
302;390
298;392
296;394
293;396
289;398
287;400
284;402
281;404
279;406
276;408
275;410
273;412
270;414
270;416
268;418
265;420
265;422
263;424
262;427
261;429
260;431
258;433
258;435
257;437
256;439
256;441
256;443
254;445
255;447
255;449
254;451
254;453
254;455
254;457
254;459
254;461
254;463
254;465
254;467
255;470
255;472
255;474
256;476
256;478
257;480
258;482
258;484
259;486
259;488
260;490
258;492
261;494
262;496
263;498
264;500
262;502
266;504
267;506
268;508
269;510
270;512
271;514
272;516
273;518
275;520
276;522
278;524
279;526
281;528
282;530
284;532
286;534
287;536
289;538
290;540
292;542
294;544
296;546
297;548
300;550
301;552
300;555
304;557
306;559
308;561
309;563
311;565
313;567
314;569
315;571
316;573
317;575
319;577
319;579
320;581
321;583
321;585
320;587
320;589
319;591
318;593
318;595
316;598
315;600
310;602
311;604
309;606
307;608
304;610
303;612
300;614
298;616
295;618
293;620
290;622
287;624
285;626
283;628
281;630
279;632
276;634
274;636
272;638
271;640
269;642
268;644
266;646
264;648
263;650
261;652
260;654
258;656
257;658
256;660
255;662
252;664
253;666
253;668
251;670
251;672
250;674
250;676
249;678
249;680
248;683
248;685
248;687
247;689
248;691
247;693
247;695
247;697
247;699
247;701
246;703
247;705
247;707
247;709
245;711
247;713
247;715
248;717
248;719
251;721
248;723
249;726
249;728
249;730
249;732
249;734
250;736
250;738
251;740
251;742
252;744
252;746
252;748
252;750
253;752
253;754
254;756
253;758
254;760
254;762
255;764
256;766
256;768
256;770
257;772
255;774
257;776
257;778
258;780
259;782
259;784
259;786
260;788
261;790
260;792
261;794
261;796
262;798
262;800
262;802
263;804
263;806
263;808
264;811
265;813
264;815
265;817
265;819
265;821
266;823
267;825
267;827
267;829
272;831
269;833
269;835
270;837
270;839
270;841
271;843
270;845
272;847
272;849
272;851
273;854
272;856
273;858
273;860
274;862
275;864
275;866
276;868
276;870
276;872
277;874
278;876
279;878
278;880
279;882
279;884
279;886
280;888
280;890
281;892
281;894
281;896
282;898
282;900
282;902
283;904
283;906
283;908
284;910
285;912
285;914
285;916
285;918
286;920
286;922
287;924
287;926
288;928
286;930
288;932
288;934
289;936
289;939
293;941
290;943
290;945
291;947
291;949
292;951
292;953
292;955
293;957
293;959
293;961
294;963
294;965
294;967
294;969
295;971
296;973
296;975
296;977
296;979
297;982
298;984
297;986
299;988
298;990
299;992
299;994
300;996
299;998
300;1000
300;1002
301;1004
301;1006
301;1008
302;1010
302;1012
303;1014
302;1016
303;1018
303;1020
304;1022
304;1024
304;1026
305;1028
304;1030
306;1032
305;1034
306;1036
306;1038
306;1040
307;1042
307;1044
307;1046
307;1048
311;1050
309;1052
309;1054
309;1056
309;1058
309;1060
310;1062
310;1064
311;1067
311;1069
311;1071
311;1073
311;1075
311;1077
312;1079
312;1081
313;1083
313;1085
313;1087
314;1089
314;1091
314;1093
315;1095
315;1097
315;1099
316;1101
316;1103
316;1105
317;1107
318;1110
319;1112
320;1114
320;1116
321;1118
321;1120
323;1122
322;1124
323;1126
324;1128
324;1130
324;1132
324;1134
324;1136
324;1138
324;1140
323;1142
324;1144
324;1146
324;1148
323;1150
323;1152
323;1154
323;1156
322;1158
325;1160
323;1162
323;1164
322;1166
322;1168
322;1170
323;1172
323;1174
323;1176
323;1178
323;1180
322;1182
322;1184
322;1186
321;1188
320;1190
319;1192
317;1195
315;1197
313;1199
311;1201
310;1203
308;1205
308;1207
307;1209
308;1211
310;1213
312;1215
317;1217
324;1219
334;1221
345;1223
359;1225
374;1227
388;1229
404;1231
420;1233
436;1235
451;1238
464;1240
474;1242
479;1244
482;1246
481;1248
477;1250
469;1252
463;1254
457;1256
451;1258
445;1260
440;1262
435;1264
430;1266
425;1268
420;1270
415;1272
406;1274
404;1276
398;1278
396;1280
391;1282
385;1284
381;1286
376;1288
371;1290
366;1292
362;1294
358;1296
354;1298
350;1300
347;1302
343;1304
340;1306
337;1308
333;1310
330;1312
328;1314
326;1316
323;1318
321;1320
318;1323
317;1325
315;1327
313;1329
311;1331
310;1333
308;1335
308;1337
305;1339
304;1341
303;1343
302;1345
301;1347
301;1349
300;1351
299;1353
298;1355
297;1357
297;1359
297;1361
297;1363
297;1366
297;1368
296;1370
296;1372
296;1374
297;1376
296;1378
296;1380
297;1382
294;1384
297;1386
297;1388
298;1390
298;1392
298;1394
299;1396
300;1398
300;1400
300;1402
301;1404
301;1406
303;1408
303;1410
304;1412
304;1414
305;1416
306;1418
307;1420
308;1422
309;1424
310;1426
311;1428
312;1430
313;1432
314;1434
316;1436
317;1438
318;1440
320;1442
321;1444
323;1446
324;1448
325;1451
327;1453
328;1455
331;1457
332;1459
334;1461
335;1463
336;1465
338;1467
340;1469
341;1471
343;1473
345;1475
347;1477
348;1479
350;1481
351;1483
352;1485
353;1487
355;1489
356;1491
355;1494
358;1496
359;1498
359;1500
360;1502
358;1504
360;1506
360;1508
359;1510
357;1512
357;1514
355;1516
353;1518
352;1520
350;1522
348;1524
346;1526
343;1528
341;1530
338;1532
335;1534
334;1536
332;1538
329;1540
326;1542
324;1544
321;1546
319;1548
316;1550
314;1552
312;1554
309;1556
307;1558
306;1560
303;1562
302;1564
299;1566
298;1568
296;1570
295;1572
293;1574
292;1576
290;1579
289;1581
288;1583
287;1585
286;1587
285;1589
284;1591
284;1593
283;1595
282;1597
282;1599
281;1601
278;1603
279;1605
279;1607
279;1609
279;1611
277;1613
278;1615
278;1617
278;1619
277;1622
277;1624
277;1626
277;1628
277;1630
277;1632
277;1634
277;1636
277;1638
277;1640
278;1642
277;1644
278;1646
278;1648
277;1650
278;1652
278;1654
279;1656
278;1658
281;1660
279;1662
279;1664
276;1666
279;1668
279;1670
280;1672
280;1674
279;1676
280;1678
280;1680
281;1682
281;1684
281;1686
281;1688
281;1690
282;1692
282;1694
282;1696
282;1698
282;1700
282;1702
283;1704
284;1707
283;1709
283;1711
281;1713
283;1715
283;1717
284;1719
284;1721
285;1723
284;1725
284;1727
284;1729
284;1731
284;1733
285;1735
285;1737
285;1739
285;1741
285;1743
285;1745
285;1747
285;1750
285;1752
285;1754
286;1756
286;1758
286;1760
286;1762
286;1764
286;1766
287;1768
288;1770
287;1772
287;1774
287;1776
287;1778
287;1780
287;1782
287;1784
287;1786
287;1788
287;1790
287;1792
287;1794
287;1796
287;1798
287;1800
288;1802
288;1804
288;1806
287;1808
288;1810
288;1812
288;1814
288;1816
288;1818
289;1820
286;1822
289;1824
288;1826
289;1828
289;1830
293;1832
289;1835
289;1837
289;1839
289;1841
289;1843
289;1845
290;1847
290;1849
290;1851
290;1853
289;1855
289;1857
289;1859
290;1861
290;1863
290;1865
290;1867
289;1869
290;1871
290;1873
290;1875
290;1878
292;1880
291;1882
291;1884
291;1886
291;1888
291;1890
291;1892
290;1894
291;1896
291;1898
291;1900
291;1902
291;1904
290;1906
291;1908
290;1910
291;1912
291;1914
291;1916
291;1918
290;1920
291;1922
291;1924
291;1926
292;1928
292;1930
289;1932
292;1934
292;1936
291;1938
291;1940
295;1942
291;1944
292;1946
292;1948
292;1950
292;1952
293;1954
292;1956
292;1958
293;1960
293;1963
292;1965
292;1967
293;1969
293;1971
294;1973
294;1975
295;1977
295;1979
296;1981
296;1983
296;1985
297;1987
298;1989
297;1991
297;1993
296;1995
296;1997
297;1999
296;2001
297;2003
296;2006
295;2008
295;2010
295;2012
295;2014
294;2016
294;2018
293;2020
293;2022
292;2024
292;2026
291;2028
291;2030
291;2032
291;2034
290;2036
290;2038
290;2040
289;2042
290;2044
290;2046
289;2048
289;2050
292;2052
288;2054
286;2056
284;2058
282;2060
280;2062
279;2064
277;2066
275;2068
273;2070
272;2072
271;2074
272;2076
273;2078
276;2080
282;2082
290;2084
300;2086
312;2088
326;2091
342;2093
358;2095
373;2097
391;2099
406;2101
421;2103
433;2105
442;2107
448;2109
450;2111
449;2113
444;2115
438;2117
432;2119
426;2121
419;2123
414;2125
410;2127
404;2129
400;2131
394;2134
389;2136
383;2138
377;2140
371;2142
365;2144
359;2146
354;2148
349;2150
343;2152
337;2154
333;2156
328;2158
324;2160
319;2162
315;2164
308;2166
306;2168
302;2170
300;2172
295;2174
294;2176
291;2178
288;2180
285;2182
282;2184
280;2186
277;2188
275;2190
274;2192
271;2194
269;2196
267;2198
266;2200
264;2202
263;2204
261;2206
261;2208
259;2210
259;2212
257;2214
256;2216
256;2219
256;2221
254;2223
254;2225
254;2227
255;2229
254;2231
253;2233
253;2235
253;2237
253;2239
253;2241
253;2243
253;2245
253;2247
254;2249
254;2251
254;2253
255;2255
255;2257
256;2259
256;2262
256;2264
258;2266
258;2268
259;2270
260;2272
261;2274
258;2276
262;2278
263;2280
263;2282
264;2284
265;2286
267;2288
268;2290
269;2292
270;2294
271;2296
273;2298
274;2300
276;2302
276;2304
278;2306
280;2308
280;2310
282;2312
284;2314
286;2316
288;2318
289;2320
291;2322
292;2324
295;2326
296;2328
298;2330
299;2332
302;2334
303;2336
306;2338
306;2340
308;2342
309;2344
312;2347
313;2349
315;2351
316;2353
318;2355
319;2357
320;2359
321;2361
322;2363
323;2365
323;2367
324;2369
323;2371
323;2373
322;2375
321;2377
320;2379
319;2381
318;2383
313;2385
314;2387
312;2390
310;2392
307;2394
305;2396
303;2398
301;2400
298;2402
296;2404
294;2406
292;2408
290;2410
288;2412
285;2414
283;2416
281;2418
279;2420
277;2422
275;2424
274;2426
272;2428
271;2430
270;2432
268;2434
267;2436
265;2438
264;2440
263;2442
262;2444
262;2446
262;2448
259;2450
259;2452
258;2454
258;2456
256;2458
257;2460
256;2462
255;2464
254;2466
254;2468
255;2470
254;2472
254;2475
254;2477
254;2479
254;2481
254;2483
254;2485
254;2487
253;2489
254;2491
254;2493
252;2495
253;2497
254;2499
254;2501
254;2503
252;2505
255;2507
255;2509
255;2511
255;2513
255;2515
255;2518
255;2520
256;2522
256;2524
257;2526
256;2528
257;2530
257;2532
258;2534
259;2536
259;2538
259;2540
258;2542
259;2544
260;2546
261;2548
260;2550
265;2552
261;2554
262;2556
262;2558
262;2560
262;2562
262;2564
263;2566
263;2568
264;2570
264;2572
264;2574
264;2576
264;2578
264;2580
264;2582
265;2584
266;2586
266;2588
265;2590
266;2592
267;2594
266;2596
267;2598
267;2600
267;2603
265;2605
267;2607
267;2609
268;2611
268;2613
265;2615
269;2617
269;2619
269;2621
269;2623
270;2625
270;2627
270;2629
271;2631
271;2633
272;2635
272;2637
271;2639
272;2641
272;2643
272;2646
273;2648
273;2650
272;2652
273;2654
274;2656
274;2658
274;2660
278;2662
275;2664
275;2666
275;2668
276;2670
275;2672
276;2674
276;2676
276;2678
277;2680
277;2682
276;2684
276;2686
277;2688
278;2690
277;2692
278;2694
278;2696
278;2698
279;2700
278;2702
279;2704
279;2706
279;2708
280;2710
280;2712
278;2714
280;2716
280;2718
280;2720
281;2722
280;2724
281;2726
281;2728
282;2731
282;2733
281;2735
282;2737
282;2739
282;2741
283;2743
283;2745
283;2747
284;2749
283;2751
283;2753
283;2755
284;2757
284;2759
283;2761
284;2763
284;2765
285;2767
285;2769
287;2771
285;2774
286;2776
286;2778
286;2780
286;2782
286;2784
286;2786
286;2788
286;2790
286;2792
286;2794
286;2796
285;2798
286;2800
286;2802
286;2804
286;2806
287;2808
287;2810
288;2812
287;2814
287;2816
288;2818
287;2820
288;2822
286;2824
289;2826
288;2828
289;2830
289;2832
292;2834
290;2836
291;2838
291;2840
291;2842
293;2844
293;2846
294;2848
293;2850
294;2852
294;2854
294;2856
294;2859
294;2861
293;2863
293;2865
293;2867
293;2869
292;2871
292;2873
292;2875
292;2877
292;2879
293;2881
291;2883
291;2885
290;2887
290;2889
290;2891
290;2893
290;2895
290;2897
290;2899
290;2902
289;2904
289;2906
289;2908
289;2910
289;2912
288;2914
287;2916
286;2918
284;2920
282;2922
280;2924
278;2926
277;2928
275;2930
274;2932
274;2934
273;2936
274;2938
276;2940
280;2942
287;2944
290;2946
300;2948
310;2950
324;2952
339;2954
355;2956
371;2958
388;2960
404;2962
418;2964
430;2966
439;2968
445;2970
446;2972
444;2974
439;2976
432;2978
425;2980
418;2982
412;2984
406;2987
400;2989
397;2991
391;2993
385;2995
380;2997
375;2999
370;3001
365;3003
359;3005
354;3007
349;3009
344;3011
340;3013
334;3015
330;3017
325;3019
321;3021
317;3023
313;3025
310;3027
306;3030
303;3032
300;3034
296;3036
294;3038
291;3040
288;3042
286;3044
283;3046
281;3048
279;3050
277;3052
276;3054
274;3056
271;3058
270;3060
270;3062
267;3064
267;3066
265;3068
265;3070
264;3072
263;3074
262;3076
261;3078
262;3080
261;3082
260;3084
260;3086
260;3088
259;3090
259;3092
259;3094
260;3096
260;3098
260;3100
260;3102
260;3104
260;3106
260;3108
260;3110
261;3112
261;3115
262;3117
262;3119
263;3121
263;3123
263;3125
265;3127
265;3129
266;3131
267;3133
268;3135
268;3137
269;3139
270;3141
271;3143
273;3145
273;3147
275;3149
276;3151
277;3153
277;3155
280;3158
280;3160
282;3162
283;3164
284;3166
284;3168
287;3170
289;3172
291;3174
292;3176
294;3178
296;3180
298;3182
299;3184
301;3186
303;3188
304;3190
306;3192
308;3194
310;3196
312;3198
313;3200
314;3202
316;3204
317;3206
319;3208
321;3210
323;3212
324;3214
326;3216
326;3218
327;3220
328;3222
329;3224
330;3226
331;3228
331;3230
330;3232
330;3234
329;3236
328;3238
327;3240
326;3243
324;3245
322;3247
320;3249
318;3251
316;3253
313;3255
312;3257
309;3259
307;3261
304;3263
302;3265
299;3267
297;3269
295;3271
292;3273
290;3275
285;3277
285;3279
284;3281
281;3283
280;3286
278;3288
277;3290
275;3292
273;3294
272;3296
271;3298
270;3300
268;3302
268;3304
267;3306
266;3308
265;3310
263;3312
263;3314
262;3316
261;3318
261;3320
261;3322
258;3324
259;3326
260;3328
260;3330
258;3332
258;3334
259;3336
258;3338
259;3340
258;3342
257;3344
257;3346
257;3348
258;3350
258;3352
258;3354
258;3356
258;3358
258;3360
258;3362
259;3364
259;3366
259;3368
259;3371
259;3373
259;3375
259;3377
260;3379
260;3381
261;3383
261;3385
259;3387
261;3389
261;3391
262;3393
262;3395
263;3397
263;3399
263;3401
263;3403
263;3405
264;3407
264;3409
265;3411
265;3414
266;3416
266;3418
265;3420
266;3422
267;3424
266;3426
267;3428
268;3430
268;3432
266;3434
268;3436
268;3438
269;3440
269;3442
273;3444
270;3446
271;3448
270;3450
270;3452
270;3454
271;3456
271;3458
272;3460
272;3462
272;3464
273;3466
273;3468
273;3470
273;3472
273;3474
274;3476
274;3478
274;3480
274;3482
275;3484
275;3486
275;3488
275;3490
276;3492
277;3494
274;3496
276;3499
276;3501
277;3503
277;3505
278;3507
278;3509
278;3511
278;3513
278;3515
278;3517
279;3519
279;3521
279;3523
279;3525
279;3527
280;3529
280;3531
280;3533
280;3535
281;3537
281;3539
281;3542
280;3544
282;3546
282;3548
282;3550
283;3552
286;3554
283;3556
283;3558
283;3560
283;3562
283;3564
283;3566
284;3568
284;3570
284;3572
284;3574
284;3576
285;3578
284;3580
285;3582
285;3584
285;3586
286;3588
286;3590
285;3592
286;3594
286;3596
286;3598
287;3600
287;3602
287;3604
284;3606
287;3608
287;3610
287;3612
287;3614
286;3616
288;3618
288;3620
288;3622
289;3624
288;3627
288;3629
289;3631
289;3633
289;3635
289;3637
289;3639
289;3641
289;3643
289;3645
290;3647
290;3649
290;3651
289;3653
290;3655
290;3657
291;3659
290;3661
295;3663
291;3665
291;3667
291;3670
290;3672
291;3674
291;3676
291;3678
291;3680
291;3682
291;3684
292;3686
292;3688
292;3690
292;3692
292;3694
293;3696
293;3698
293;3700
294;3702
293;3704
293;3706
293;3708
295;3710
295;3712
295;3714
293;3716
297;3718
296;3720
297;3722
297;3724
296;3726
299;3728
299;3730
298;3732
298;3734
299;3736
299;3738
299;3740
299;3742
298;3744
298;3746
298;3748
297;3750
297;3752
297;3755
296;3757
296;3759
296;3761
295;3763
295;3765
295;3767
295;3769
295;3771
299;3773
295;3775
295;3777
294;3779
295;3781
295;3783
294;3785
294;3787
294;3789
293;3791
292;3793
291;3795
289;3798
286;3800
284;3802
283;3804
281;3806
279;3808
277;3810
276;3812
276;3814
276;3816
279;3818
283;3820
289;3822
297;3824
307;3826
320;3828
335;3830
350;3832
367;3834
383;3836
400;3838
407;3840
421;3842
435;3844
445;3846
451;3848
454;3850
454;3852
450;3854
444;3856
437;3858
432;3860
427;3862
421;3864
417;3866
413;3868
407;3870
401;3872
396;3874
390;3876
386;3878
379;3880
376;3883
368;3885
362;3887
357;3889
351;3891
346;3893
341;3895
337;3897
332;3899
327;3901
323;3903
319;3905
315;3907
311;3909
307;3911
304;3913
301;3915
298;3917
295;3919
292;3921
289;3923
287;3926
285;3928
283;3930
281;3932
279;3934
277;3936
275;3938
273;3940
272;3942
270;3944
270;3946
268;3948
268;3950
266;3952
265;3954
265;3956
263;3958
263;3960
263;3962
262;3964
262;3966
262;3968
262;3970
262;3972
261;3974
261;3976
261;3978
261;3980
260;3982
262;3984
262;3986
261;3988
262;3990
265;3992
263;3994
264;3996
264;3998
264;4000
265;4002
265;4004
266;4006
268;4008
268;4011
269;4013
269;4015
271;4017
272;4019
273;4021
274;4023
275;4025
276;4027
276;4029
278;4031
279;4033
281;4035
281;4037
283;4039
284;4041
286;4043
287;4045
288;4047
290;4049
292;4051
294;4054
295;4056
296;4058
299;4060
299;4062
301;4064
303;4066
305;4068
307;4070
309;4072
311;4074
312;4076
313;4078
315;4080
317;4082
319;4084
321;4086
322;4088
324;4090
325;4092
326;4094
327;4096
328;4098
329;4100
332;4102
331;4104
332;4106
331;4108
332;4110
331;4112
331;4114
330;4116
330;4118
328;4120
327;4122
326;4124
324;4126
322;4128
320;4130
318;4132
316;4134
314;4136
311;4139
309;4141
307;4143
305;4145
302;4147
300;4149
298;4151
296;4153
293;4155
292;4157
289;4159
288;4161
285;4163
284;4165
282;4167
283;4169
279;4171
277;4173
277;4175
275;4177
274;4179
273;4182
272;4184
271;4186
270;4188
269;4190
268;4192
267;4194
267;4196
266;4198
266;4200
265;4202
264;4204
265;4206
265;4208
264;4210
264;4212
264;4214
261;4216
263;4218
263;4220
263;4222
263;4224
263;4226
263;4228
263;4230
263;4232
263;4234
263;4236
263;4238
263;4240
263;4242
264;4244
264;4246
264;4248
264;4250
264;4252
265;4254
265;4256
265;4258
266;4260
266;4262
266;4264
267;4267
267;4269
267;4271
268;4273
268;4275
269;4277
270;4279
270;4281
269;4283
269;4285
270;4287
270;4289
271;4291
271;4293
271;4295
272;4297
272;4299
272;4301
272;4303
273;4305
273;4307
274;4310
273;4312
274;4314
274;4316
274;4318
274;4320
275;4322
275;4324
273;4326
275;4328
275;4330
276;4332
276;4334
274;4336
277;4338
277;4340
277;4342
277;4344
278;4346
278;4348
279;4350
279;4352
279;4354
279;4356
280;4358
279;4360
280;4362
280;4364
280;4366
281;4368
281;4370
281;4372
281;4374
281;4376
282;4378
282;4380
282;4382
282;4384
283;4386
282;4388
282;4390
283;4392
283;4395
283;4397
283;4399
284;4401
284;4403
284;4405
284;4407
284;4409
285;4411
285;4413
285;4415
286;4417
286;4419
285;4421
286;4423
285;4425
286;4427
286;4429
287;4431
287;4433
285;4435
287;4438
287;4440
287;4442
288;4444
285;4446
288;4448
288;4450
288;4452
289;4454
289;4456
289;4458
290;4460
290;4462
290;4464
290;4466
290;4468
290;4470
290;4472
290;4474
291;4476
291;4478
291;4480
291;4482
291;4484
291;4486
291;4488
291;4490
292;4492
292;4494
292;4496
289;4498
291;4500
291;4502
292;4504
292;4506
293;4508
294;4510
294;4512
293;4514
294;4516
293;4518
293;4520
294;4523
295;4525
295;4527
295;4529
295;4531
295;4533
296;4535
297;4537
298;4539
298;4541
299;4543
297;4545
300;4547
300;4549
300;4551
300;4553
301;4555
301;4557
301;4559
300;4561
301;4563
300;4566
300;4568
300;4570
300;4572
299;4574
299;4576
298;4578
299;4580
298;4582
298;4584
298;4586
298;4588
298;4590
297;4592
298;4594
297;4596
297;4598
297;4600
299;4602
298;4604
297;4606
295;4608
297;4610
296;4612
295;4614
294;4616
294;4618
292;4620
290;4622
288;4624
286;4626
285;4628
283;4630
282;4632
282;4634
283;4636
284;4638
286;4640
292;4642
297;4644
307;4646
318;4648
331;4651
345;4653
359;4655
376;4657
392;4659
408;4661
422;4663
439;4665
444;4667
450;4669
451;4671
450;4673
445;4675
439;4677
432;4679
425;4681
418;4683
412;4685
406;4687
401;4689
396;4691
391;4694
385;4696
381;4698
376;4700
371;4702
365;4704
360;4706
355;4708
351;4710
348;4712
342;4714
337;4716
333;4718
329;4720
325;4722
321;4724
318;4726
314;4728
311;4730
308;4732
305;4734
304;4736
301;4738
298;4740
296;4742
294;4744
291;4746
289;4748
288;4750
285;4752
284;4754
282;4756
280;4758
279;4760
278;4762
275;4764
276;4766
274;4768
273;4770
273;4772
276;4774
272;4776
271;4779
271;4781
271;4783
270;4785
269;4787
269;4789
269;4791
269;4793
269;4795
269;4797
269;4799
269;4801
270;4803
269;4805
270;4807
270;4809
270;4811
271;4813
271;4815
272;4817
272;4819
274;4822
273;4824
274;4826
274;4828
275;4830
276;4832
277;4834
278;4836
279;4838
280;4840
281;4842
281;4844
282;4846
283;4848
285;4850
286;4852
287;4854
288;4856
289;4858
291;4860
292;4862
293;4864
295;4866
296;4868
298;4870
299;4872
299;4874
302;4876
304;4878
306;4880
307;4882
314;4884
311;4886
313;4888
314;4890
317;4892
319;4894
320;4896
322;4898
323;4900
325;4902
327;4904
328;4907
329;4909
332;4911
333;4913
334;4915
335;4917
336;4919
336;4921
338;4923
338;4925
338;4927
338;4929
338;4931
337;4933
336;4935
335;4937
334;4939
332;4941
330;4943
328;4945
327;4947
324;4950
322;4952
319;4954
317;4956
315;4958
313;4960
310;4962
308;4964
306;4966
304;4968
300;4970
299;4972
296;4974
294;4976
293;4978
291;4980
289;4982
286;4984
285;4986
283;4988
282;4990
281;4992
283;4994
279;4996
277;4998
277;5000
275;5002
274;5004
273;5006
272;5008
272;5010
271;5012
270;5014
270;5016
269;5018
268;5020
268;5022
267;5024
267;5026
267;5028
266;5030
266;5032
266;5035
266;5037
265;5039
266;5041
266;5043
266;5045
265;5047
266;5049
266;5051
266;5053
266;5055
266;5057
266;5059
267;5061
267;5063
267;5065
267;5067
267;5069
268;5071
269;5073
269;5075
269;5078
269;5080
269;5082
270;5084
270;5086
270;5088
271;5090
271;5092
272;5094
271;5096
272;5098
273;5100
272;5102
273;5104
274;5106
272;5108
273;5110
275;5112
274;5114
275;5116
275;5118
275;5120
276;5122
276;5124
276;5126
277;5128
277;5130
277;5132
277;5134
278;5136
278;5138
278;5140
278;5142
279;5144
279;5146
279;5148
280;5150
280;5152
280;5154
280;5156
281;5158
281;5160
282;5163
281;5165
282;5167
282;5169
283;5171
282;5173
283;5175
282;5177
283;5179
283;5181
284;5183
284;5185
284;5187
285;5189
284;5191
285;5193
285;5195
286;5197
286;5199
286;5201
286;5203
287;5206
287;5208
287;5210
287;5212
287;5214
288;5216
285;5218
287;5220
288;5222
288;5224
288;5226
288;5228
289;5230
289;5232
290;5234
289;5236
289;5238
290;5240
289;5242
291;5244
291;5246
291;5248
291;5250
291;5252
291;5254
292;5256
291;5258
292;5260
293;5262
293;5264
292;5266
292;5268
293;5270
294;5272
294;5274
294;5276
294;5278
295;5280
295;5282
294;5284
295;5286
295;5288
295;5291
295;5293
296;5295
295;5297
295;5299
295;5301
295;5303
295;5305
296;5307
297;5309
298;5311
297;5313
297;5315
298;5317
298;5319
298;5321
299;5323
299;5325
297;5327
300;5329
301;5331
301;5334
301;5336
300;5338
302;5340
303;5342
304;5344
304;5346
304;5348
306;5350
305;5352
306;5354
305;5356
306;5358
305;5360
305;5362
305;5364
305;5366
305;5368
305;5370
304;5372
303;5374
304;5376
304;5378
304;5380
302;5382
303;5384
303;5386
303;5388
303;5390
301;5392
301;5394
302;5396
302;5398
301;5400
302;5402
302;5404
302;5406
301;5408
301;5410
300;5412
300;5414
300;5416
299;5419
297;5421
296;5423
294;5425
292;5427
291;5429
290;5431
288;5433
287;5435
284;5437
286;5439
288;5441
290;5443
295;5445
299;5447
309;5449
319;5451
331;5453
344;5455
358;5457
372;5459
387;5462
402;5464
415;5466
427;5468
435;5470
441;5472
444;5474
444;5476
439;5478
434;5480
428;5482
420;5484
415;5486
409;5488
404;5490
400;5492
399;5494
391;5496
386;5498
382;5500
376;5502
374;5504
370;5506
364;5508
359;5510
355;5512
350;5514
346;5516
341;5518
337;5520
333;5522
329;5524
326;5526
322;5528
319;5530
315;5532
313;5534
309;5536
306;5538
304;5540
302;5542
299;5544
295;5547
294;5549
292;5551
291;5553
289;5555
285;5557
285;5559
284;5561
283;5563
282;5565
280;5567
279;5569
278;5571
278;5573
276;5575
276;5577
275;5579
275;5581
274;5583
273;5585
273;5587
273;5590
273;5592
272;5594
272;5596
272;5598
272;5600
272;5602
275;5604
272;5606
273;5608
272;5610
273;5612
274;5614
273;5616
274;5618
275;5620
275;5622
275;5624
276;5626
277;5628
277;5630
277;5632
278;5634
279;5636
280;5638
281;5640
281;5642
282;5644
283;5646
284;5648
286;5650
286;5652
287;5654
286;5656
289;5658
290;5660
292;5662
293;5664
295;5666
296;5668
297;5670
298;5672
300;5675
301;5677
303;5679
304;5681
307;5683
308;5685
310;5687
311;5689
313;5691
314;5693
316;5695
317;5697
319;5699
321;5701
322;5703
323;5705
325;5707
327;5709
329;5711
332;5713
331;5715
333;5718
333;5720
334;5722
336;5724
336;5726
336;5728
337;5730
337;5732
337;5734
335;5736
335;5738
334;5740
333;5742
331;5744
330;5746
328;5748
326;5750
324;5752
322;5754
319;5756
318;5758
315;5760
314;5762
311;5764
307;5766
307;5768
304;5770
303;5772
299;5774
300;5776
295;5778
294;5780
291;5782
290;5784
288;5786
286;5788
284;5790
283;5792
282;5794
280;5796
279;5798
277;5800
276;5803
276;5805
275;5807
273;5809
272;5811
271;5813
271;5815
269;5817
270;5819
269;5821
270;5823
268;5825
268;5827
266;5829
266;5831
267;5833
266;5835
265;5837
266;5839
266;5841
266;5843
265;5846
265;5848
266;5850
265;5852
266;5854
266;5856
266;5858
266;5860
266;5862
266;5864
267;5866
266;5868
267;5870
267;5872
268;5874
267;5876
267;5878
267;5880
268;5882
269;5884
269;5886
269;5888
269;5890
269;5892
270;5894
270;5896
271;5898
272;5900
272;5902
272;5904
272;5906
273;5908
273;5910
274;5912
274;5914
273;5916
274;5918
275;5920
275;5922
274;5924
275;5926
276;5928
276;5931
277;5933
276;5935
277;5937
276;5939
276;5941
277;5943
277;5945
277;5947
278;5949
279;5951
279;5953
279;5955
279;5957
279;5959
280;5961
280;5963
281;5965
281;5967
281;5969
281;5971
281;5974
281;5976
282;5978
282;5980
283;5982
283;5984
282;5986
283;5988
283;5990
284;5992
284;5994
284;5996
285;5998
285;6000
285;6002
285;6004
285;6006
286;6008
286;6010
286;6012
287;6014
287;6016
287;6018
287;6020
287;6022
287;6024
287;6026
288;6028
288;6030
288;6032
288;6034
289;6036
289;6038
289;6040
290;6042
289;6044
290;6046
290;6048
290;6050
290;6052
290;6054
291;6056
291;6059
291;6061
291;6063
291;6065
292;6067
292;6069
292;6071
292;6073
292;6075
292;6077
292;6079
293;6081
293;6083
293;6085
294;6087
293;6089
294;6091
294;6093
293;6095
294;6097
294;6099
294;6102
294;6104
295;6106
295;6108
294;6110
295;6112
295;6114
295;6116
295;6118
295;6120
296;6122
296;6124
295;6126
296;6128
296;6130
296;6132
296;6134
296;6136
296;6138
297;6140
296;6142
296;6144
296;6146
297;6148
297;6150
297;6152
297;6154
297;6156
297;6158
297;6160
298;6162
297;6164
297;6166
298;6168
298;6170
298;6172
298;6174
297;6176
298;6178
298;6180
298;6182
298;6184
299;6187
298;6189
299;6191
299;6193
299;6195
298;6197
299;6199
299;6201
299;6203
299;6205
300;6207
299;6209
299;6211
299;6213
300;6215
300;6217
297;6219
299;6221
299;6223
299;6225
300;6227
299;6230
299;6232
299;6234
299;6236
299;6238
299;6240
299;6242
299;6244
300;6246
300;6248
300;6250
300;6252
300;6254
300;6256
300;6258
300;6260
301;6262
301;6264
299;6266
302;6268
302;6270
303;6272
303;6274
303;6276
304;6278
304;6280
305;6282
304;6284
304;6286
305;6288
305;6290
305;6292
305;6294
305;6296
304;6298
304;6300
304;6302
304;6304
304;6306
303;6308
303;6310
303;6312
303;6315
302;6317
302;6319
302;6321
301;6323
301;6325
301;6327
299;6329
301;6331
300;6333
300;6335
300;6337
299;6339
300;6341
299;6343
298;6345
297;6347
296;6349
295;6351
293;6353
291;6355
289;6358
287;6360
285;6362
283;6364
281;6366
281;6368
281;6370
283;6372
286;6374
289;6376
297;6378
307;6380
319;6382
332;6384
351;6386
363;6388
378;6390
394;6392
410;6394
425;6396
438;6398
442;6400
451;6402
457;6404
459;6406
456;6408
452;6410
446;6412
441;6414
436;6416
432;6418
428;6420
423;6422
418;6424
411;6426
406;6428
400;6430
394;6432
389;6434
383;6436
374;6438
371;6440
365;6443
359;6445
353;6447
349;6449
344;6451
339;6453
334;6455
329;6457
325;6459
322;6461
317;6463
314;6465
310;6467
306;6469
303;6471
300;6473
297;6475
294;6477
291;6479
289;6481
287;6483
282;6486
282;6488
280;6490
279;6492
276;6494
279;6496
274;6498
272;6500
270;6502
270;6504
269;6506
268;6508
266;6510
266;6512
265;6514
265;6516
264;6518
263;6520
263;6522
263;6524
262;6526
262;6528
262;6530
262;6532
262;6534
262;6536
261;6538
262;6540
262;6542
263;6544
263;6546
260;6548
264;6550
264;6552
265;6554
265;6556
265;6558
267;6560
267;6562
267;6564
268;6566
269;6568
269;6571
270;6573
272;6575
273;6577
274;6579
274;6581
275;6583
276;6585
277;6587
279;6589
280;6591
281;6593
282;6595
284;6597
285;6599
286;6601
287;6603
293;6605
291;6607
292;6609
294;6611
295;6614
297;6616
299;6618
300;6620
302;6622
304;6624
305;6626
306;6628
308;6630
310;6632
312;6634
313;6636
315;6638
317;6640
318;6642
320;6644
321;6646
323;6648
324;6650
326;6652
327;6654
327;6656
325;6658
328;6660
329;6662
329;6664
330;6666
328;6668
330;6670
329;6672
328;6674
327;6676
326;6678
324;6680
322;6682
321;6684
320;6686
318;6688
315;6690
313;6692
311;6694
309;6696
306;6699
305;6701
303;6703
299;6705
298;6707
296;6709
295;6711
292;6713
294;6715
289;6717
287;6719
285;6721
283;6723
281;6725
280;6727
279;6729
278;6731
277;6733
276;6735
274;6737
274;6739
273;6742
271;6744
271;6746
270;6748
269;6750
268;6752
268;6754
268;6756
267;6758
267;6760
267;6762
266;6764
266;6766
266;6768
266;6770
266;6772
265;6774
265;6776
265;6778
265;6780
265;6782
265;6784
265;6786
266;6788
265;6790
266;6792
266;6794
266;6796
266;6798
266;6800
266;6802
267;6804
266;6806
267;6808
267;6810
268;6812
268;6814
268;6816
269;6818
268;6820
269;6822
272;6824
270;6827
270;6829
270;6831
271;6833
271;6835
270;6837
271;6839
272;6841
272;6843
272;6845
273;6847
272;6849
273;6851
274;6853
273;6855
274;6857
274;6859
274;6861
275;6863
275;6865
276;6867
275;6870
276;6872
276;6874
276;6876
276;6878
277;6880
277;6882
278;6884
278;6886
278;6888
278;6890
279;6892
278;6894
279;6896
279;6898
279;6900
279;6902
280;6904
280;6906
280;6908
281;6910
281;6912
281;6914
281;6916
281;6918
282;6920
282;6922
282;6924
282;6926
282;6928
283;6930
283;6932
285;6934
283;6936
284;6938
283;6940
284;6942
284;6944
284;6946
285;6948
285;6950
285;6952
285;6955
286;6957
285;6959
286;6961
286;6963
286;6965
287;6967
287;6969
287;6971
287;6973
287;6975
287;6977
287;6979
288;6981
288;6983
288;6985
288;6987
288;6989
288;6991
288;6993
288;6995
289;6998
289;7000
291;7002
289;7004
290;7006
290;7008
289;7010
290;7012
290;7014
291;7016
291;7018
290;7020
290;7022
290;7024
291;7026
292;7028
292;7030
292;7032
292;7034
292;7036
292;7038
291;7040
292;7042
294;7044
293;7046
293;7048
293;7050
293;7052
293;7054
293;7056
293;7058
294;7060
294;7062
294;7064
294;7066
294;7068
295;7070
295;7072
294;7074
295;7076
294;7078
294;7080
295;7083
294;7085
294;7087
294;7089
295;7091
295;7093
296;7095
295;7097
296;7099
296;7101
296;7103
296;7105
297;7107
297;7109
299;7111
297;7113
297;7115
297;7117
298;7119
299;7121
300;7123
300;7126
301;7128
301;7130
301;7132
302;7134
302;7136
303;7138
303;7140
303;7142
302;7144
302;7146
302;7148
301;7150
301;7152
301;7154
301;7156
298;7158
301;7160
300;7162
300;7164
299;7166
299;7168
300;7170
300;7172
300;7174
299;7176
298;7178
298;7180
298;7182
298;7184
299;7186
298;7188
298;7190
299;7192
298;7194
297;7196
297;7198
296;7200
294;7202
293;7204
290;7206
289;7208
287;7211
285;7213
283;7215
283;7217
282;7219
283;7221
284;7223
286;7225
291;7227
297;7229
306;7231
317;7233
330;7235
345;7237
360;7239
375;7241
391;7243
408;7245
423;7247
435;7249
445;7251
451;7254
454;7256
453;7258
448;7260
442;7262
435;7264
429;7266
419;7268
416;7270
411;7272
406;7274
401;7276
394;7278
391;7280
385;7282
380;7284
375;7286
369;7288
364;7290
359;7292
355;7294
352;7296
347;7298
342;7300
337;7302
333;7304
329;7306
325;7308
322;7310
318;7312
315;7314
311;7316
307;7318
305;7320
302;7322
298;7324
297;7326
294;7328
291;7330
291;7332
288;7334
285;7336
284;7339
282;7341
281;7343
279;7345
278;7347
277;7349
275;7351
274;7353
274;7355
273;7357
272;7359
271;7361
271;7363
270;7365
270;7367
269;7369
269;7371
269;7373
268;7375
266;7377
268;7379
268;7382
268;7384
268;7386
265;7388
269;7390
269;7392
269;7394
270;7396
269;7398
269;7400
271;7402
271;7404
272;7406
272;7408
272;7410
273;7412
274;7414
275;7416
276;7418
277;7420
277;7422
278;7424
278;7426
279;7428
280;7430
282;7432
282;7434
284;7436
285;7438
284;7440
287;7442
288;7444
289;7446
291;7448
293;7450
294;7452
296;7454
297;7456
299;7458
300;7460
301;7462
303;7464
305;7467
307;7469
309;7471
311;7473
312;7475
313;7477
316;7479
317;7481
319;7483
321;7485
320;7487
323;7489
326;7491
327;7493
328;7495
329;7497
331;7499
332;7501
332;7503
333;7505
334;7507
335;7510
335;7512
335;7514
335;7516
334;7518
334;7520
332;7522
331;7524
329;7526
328;7528
327;7530
325;7532
322;7534
321;7536
319;7538
316;7540
314;7542
314;7544
309;7546
307;7548
304;7550
303;7552
302;7554
298;7556
297;7558
294;7560
292;7562
290;7564
289;7566
286;7568
285;7570
284;7572
282;7574
280;7576
279;7578
277;7580
275;7582
275;7584
274;7586
272;7588
272;7590
271;7592
270;7595
267;7597
268;7599
268;7601
267;7603
266;7605
268;7607
266;7609
265;7611
265;7613
265;7615
264;7617
264;7619
264;7621
264;7623
264;7625
263;7627
264;7629
263;7631
263;7633
263;7635
263;7638
264;7640
264;7642
264;7644
264;7646
265;7648
264;7650
264;7652
266;7654
265;7656
265;7658
266;7660
265;7662
266;7664
267;7666
266;7668
267;7670
267;7672
268;7674
268;7676
268;7678
269;7680
268;7682
269;7684
269;7686
270;7688
270;7690
270;7692
271;7694
271;7696
271;7698
271;7700
272;7702
272;7704
271;7706
273;7708
273;7710
273;7712
273;7714
277;7716
275;7718
274;7720
275;7723
275;7725
275;7727
275;7729
276;7731
276;7733
277;7735
277;7737
276;7739
277;7741
277;7743
277;7745
278;7747
278;7749
278;7751
278;7753
278;7755
279;7757
279;7759
279;7761
280;7763
280;7766
280;7768
280;7770
280;7772
280;7774
281;7776
281;7778
281;7780
281;7782
281;7784
282;7786
282;7788
281;7790
282;7792
282;7794
283;7796
283;7798
283;7800
283;7802
283;7804
284;7806
284;7808
283;7810
284;7812
284;7814
283;7816
284;7818
284;7820
284;7822
285;7824
288;7826
285;7828
285;7830
285;7832
285;7834
285;7836
285;7838
285;7840
286;7842
286;7844
286;7846
286;7848
286;7851
286;7853
286;7855
286;7857
287;7859
287;7861
287;7863
287;7865
287;7867
287;7869
287;7871
288;7873
288;7875
287;7877
287;7879
287;7881
287;7883
287;7885
287;7887
288;7889
288;7891
288;7894
288;7896
288;7898
288;7900
288;7902
288;7904
288;7906
289;7908
289;7910
288;7912
288;7914
289;7916
288;7918
289;7920
289;7922
289;7924
288;7926
289;7928
289;7930
288;7932
288;7934
292;7936
289;7938
289;7940
288;7942
288;7944
288;7946
288;7948
288;7950
289;7952
289;7954
289;7956
288;7958
288;7960
289;7962
289;7964
288;7966
289;7968
289;7970
289;7972
289;7974
289;7976
288;7979
288;7981
289;7983
288;7985
289;7987
289;7989
289;7991
290;7993
289;7995
290;7997
290;7999
290;8001
289;8003
289;8005
290;8007
290;8009
290;8011
290;8013
291;8015
292;8017
293;8019
293;8022
293;8024
293;8026
294;8028
294;8030
294;8032
294;8034
294;8036
293;8038
294;8040
294;8042
293;8044
293;8046
293;8048
290;8050
292;8052
292;8054
291;8056
291;8058
291;8060
291;8062
291;8064
291;8066
290;8068
290;8070
289;8072
289;8074
289;8076
289;8078
289;8080
289;8082
289;8084
288;8086
288;8088
288;8090
288;8092
288;8094
287;8096
285;8098
283;8100
282;8102
280;8104
277;8107
276;8109
274;8111
273;8113
271;8115
270;8117
271;8119
274;8121
277;8123
282;8125
291;8127
302;8129
313;8131
327;8133
343;8135
358;8137
375;8139
391;8141
407;8143
420;8145
433;8147
442;8150
448;8152
449;8154
448;8156
444;8158
434;8160
432;8162
426;8164
422;8166
417;8168
412;8170
407;8172
402;8174
396;8176
390;8178
384;8180
378;8182
372;8184
367;8186
361;8188
356;8190
353;8192
348;8194
342;8196
337;8198
332;8200
327;8202
323;8204
318;8206
315;8208
310;8210
306;8212
303;8214
300;8216
296;8218
293;8220
291;8222
287;8224
284;8226
281;8228
279;8230
277;8232
275;8235
273;8237
271;8239
269;8241
268;8243
266;8245
265;8247
263;8249
263;8251
261;8253
261;8255
260;8257
259;8259
258;8261
257;8263
257;8265
257;8267
254;8269
256;8271
255;8273
255;8275
255;8278
256;8280
256;8282
256;8284
256;8286
256;8288
256;8290
257;8292
257;8294
258;8296
258;8298
259;8300
259;8302
259;8304
260;8306
261;8308
262;8310
263;8312
264;8314
263;8316
265;8318
265;8320
266;8322
267;8324
268;8326
270;8328
271;8330
273;8332
273;8334
274;8336
275;8338
276;8340
278;8342
279;8344
281;8346
282;8348
284;8350
285;8352
287;8354
289;8356
290;8358
292;8360
293;8363
294;8365
296;8367
298;8369
300;8371
302;8373
304;8375
306;8377
305;8379
309;8381
310;8383
313;8385
314;8387
314;8389
318;8391
320;8393
321;8395
322;8397
323;8399
325;8401
326;8403
327;8406
328;8408
328;8410
329;8412
328;8414
328;8416
328;8418
327;8420
326;8422
325;8424
323;8426
323;8428
321;8430
319;8432
317;8434
319;8436
314;8438
311;8440
309;8442
307;8444
305;8446
303;8448
302;8450
299;8452
298;8454
296;8456
293;8458
291;8460
290;8462
288;8464
286;8466
285;8468
284;8470
282;8472
281;8474
279;8476
278;8478
276;8480
275;8482
275;8484
274;8486
271;8488
272;8491
272;8493
270;8495
269;8497
267;8499
269;8501
269;8503
268;8505
268;8507
267;8509
267;8511
267;8513
267;8515
267;8517
266;8519
267;8521
266;8523
266;8525
266;8527
266;8529
266;8531
267;8534
266;8536
267;8538
267;8540
267;8542
268;8544
271;8546
268;8548
269;8550
269;8552
269;8554
269;8556
269;8558
270;8560
270;8562
271;8564
271;8566
271;8568
272;8570
272;8572
273;8574
273;8576
273;8578
274;8580
274;8582
274;8584
275;8586
275;8588
276;8590
276;8592
277;8594
277;8596
275;8598
278;8600
277;8602
278;8604
279;8606
280;8608
279;8610
280;8612
280;8614
280;8616
280;8619
280;8621
281;8623
282;8625
282;8627
282;8629
283;8631
283;8633
284;8635
284;8637
284;8639
284;8641
285;8643
284;8645
286;8647
286;8649
286;8651
286;8653
289;8655
287;8657
288;8659
287;8662
288;8664
288;8666
288;8668
288;8670
289;8672
289;8674
290;8676
290;8678
290;8680
290;8682
290;8684
291;8686
291;8688
291;8690
291;8692
292;8694
292;8696
292;8698
293;8700
293;8702
293;8704
293;8706
292;8708
293;8710
293;8712
294;8714
294;8716
298;8718
294;8720
295;8722
295;8724
295;8726
295;8728
295;8730
296;8732
296;8734
296;8736
296;8738
297;8740
297;8742
297;8744
297;8747
298;8749
298;8751
298;8753
298;8755
298;8757
299;8759
299;8761
299;8763
301;8765
300;8767
300;8769
300;8771
300;8773
300;8775
300;8777
301;8779
301;8781
301;8783
301;8785
301;8787
301;8790
301;8792
302;8794
301;8796
302;8798
302;8800
303;8802
303;8804
302;8806
302;8808
302;8810
303;8812
303;8814
303;8816
303;8818
303;8820
303;8822
303;8824
303;8826
304;8828
304;8830
304;8832
303;8834
304;8836
303;8838
304;8840
304;8842
304;8844
305;8846
305;8848
304;8850
304;8852
304;8854
305;8856
306;8858
305;8860
306;8862
305;8864
305;8866
305;8868
306;8870
305;8872
307;8875
306;8877
306;8879
306;8881
305;8883
307;8885
307;8887
306;8889
307;8891
307;8893
307;8895
307;8897
306;8899
307;8901
306;8903
307;8905
307;8907
307;8909
307;8911
307;8913
307;8915
307;8918
307;8920
307;8922
307;8924
307;8926
307;8928
308;8930
307;8932
307;8934
308;8936
308;8938
308;8940
307;8942
308;8944
308;8946
308;8948
308;8950
308;8952
308;8954
308;8956
308;8958
308;8960
308;8962
307;8964
307;8966
307;8968
307;8970
308;8972
308;8974
308;8976
308;8978
308;8980
309;8982
309;8984
308;8986
308;8988
308;8990
309;8992
308;8994
309;8996
308;8998
309;9000
309;9003
310;9005
310;9007
311;9009
312;9011
312;9013
312;9015
313;9017
313;9019
313;9021
313;9023
313;9025
313;9027
313;9029
313;9031
313;9033
313;9035
312;9037
311;9039
311;9041
311;9043
310;9046
310;9048
310;9050
307;9052
309;9054
309;9056
309;9058
308;9060
308;9062
308;9064
308;9066
307;9068
307;9070
307;9072
307;9074
307;9076
307;9078
306;9080
305;9082
304;9084
303;9086
302;9088
300;9090
298;9092
296;9094
294;9096
292;9098
290;9100
289;9102
289;9104
289;9106
290;9108
294;9110
299;9112
305;9114
315;9116
327;9118
340;9120
356;9122
370;9124
387;9126
403;9128
419;9131
434;9133
446;9135
455;9137
461;9139
464;9141
462;9143
457;9145
450;9147
443;9149
437;9151
431;9153
425;9155
420;9157
415;9159
406;9161
404;9163
399;9165
393;9167
387;9169
382;9171
377;9174
371;9176
365;9178
360;9180
355;9182
350;9184
346;9186
341;9188
337;9190
333;9192
329;9194
324;9196
321;9198
317;9200
314;9202
310;9204
307;9206
302;9208
302;9210
299;9212
296;9214
295;9216
293;9218
291;9220
288;9222
287;9224
284;9226
283;9228
281;9230
280;9232
279;9234
277;9236
276;9238
275;9240
274;9242
273;9244
272;9246
271;9248
271;9250
271;9252
270;9254
270;9256
269;9259
268;9261
268;9263
268;9265
268;9267
268;9269
266;9271
268;9273
269;9275
268;9277
269;9279
268;9281
269;9283
270;9285
271;9287
271;9289
271;9291
272;9293
273;9295
273;9297
274;9299
274;9302
274;9304
276;9306
276;9308
277;9310
278;9312
279;9314
280;9316
280;9318
282;9320
284;9322
284;9324
286;9326
291;9328
289;9330
290;9332
291;9334
292;9336
294;9338
295;9340
297;9342
298;9344
300;9346
301;9348
303;9350
305;9352
306;9354
308;9356
309;9358
312;9360
313;9362
315;9364
316;9366
319;9368
320;9370
322;9372
323;9374
325;9376
327;9378
326;9380
329;9382
330;9384
331;9387
334;9389
334;9391
336;9393
336;9395
337;9397
337;9399
337;9401
337;9403
336;9405
335;9407
335;9409
333;9411
332;9413
330;9415
328;9417
327;9419
324;9421
322;9423
320;9425
316;9427
315;9430
313;9432
311;9434
308;9436
310;9438
304;9440
302;9442
299;9444
297;9446
294;9448
293;9450
291;9452
289;9454
287;9456
286;9458
284;9460
281;9462
280;9464
279;9466
277;9468
277;9470
276;9472
275;9474
273;9476
273;9478
271;9480
271;9482
269;9484
269;9486
269;9488
266;9490
268;9492
268;9494
266;9496
266;9498
264;9500
265;9502
265;9504
266;9506
265;9508
264;9510
264;9512
264;9515
265;9517
265;9519
264;9521
264;9523
264;9525
265;9527
265;9529
265;9531
265;9533
265;9535
265;9537
266;9539
266;9541
266;9543
266;9545
270;9547
267;9549
267;9551
267;9553
268;9555
268;9558
268;9560
268;9562
269;9564
269;9566
269;9568
269;9570
270;9572
270;9574
271;9576
270;9578
271;9580
271;9582
272;9584
272;9586
272;9588
272;9590
272;9592
274;9594
274;9596
274;9598
271;9600
274;9602
273;9604
274;9606
275;9608
273;9610
275;9612
276;9614
275;9616
276;9618
276;9620
276;9622
277;9624
277;9626
278;9628
278;9630
278;9632
278;9634
279;9636
279;9638
279;9640
279;9643
279;9645
278;9647
280;9649
280;9651
280;9653
281;9655
284;9657
281;9659
281;9661
282;9663
282;9665
282;9667
282;9669
282;9671
283;9673
283;9675
283;9677
284;9679
283;9681
284;9683
284;9686
284;9688
285;9690
285;9692
285;9694
285;9696
285;9698
285;9700
285;9702
286;9704
286;9706
286;9708
286;9710
287;9712
286;9714
288;9716
288;9718
287;9720
288;9722
288;9724
287;9726
288;9728
288;9730
289;9732
288;9734
289;9736
289;9738
289;9740
289;9742
289;9744
290;9746
289;9748
290;9750
290;9752
291;9754
290;9756
290;9758
291;9760
291;9762
290;9764
293;9766
291;9768
292;9771
291;9773
292;9775
292;9777
292;9779
291;9781
292;9783
292;9785
293;9787
292;9789
292;9791
293;9793
293;9795
293;9797
293;9799
294;9801
293;9803
293;9805
293;9807
293;9809
294;9811
294;9814
294;9816
294;9818
294;9820
294;9822
294;9824
294;9826
294;9828
295;9830
295;9832
296;9834
295;9836
295;9838
295;9840
295;9842
295;9844
295;9846
295;9848
296;9850
295;9852
296;9854
296;9856
296;9858
296;9860
296;9862
296;9864
296;9866
296;9868
296;9870
296;9872
297;9874
298;9876
297;9878
297;9880
296;9882
297;9884
297;9886
296;9888
298;9890
297;9892
298;9894
297;9896
297;9899
298;9901
297;9903
298;9905
297;9907
298;9909
298;9911
298;9913
298;9915
298;9917
298;9919
298;9921
298;9923
298;9925
298;9927
298;9929
298;9931
297;9933
297;9935
297;9937
297;9939
297;9942
299;9944
296;9946
297;9948
298;9950
298;9952
297;9954
298;9956
298;9958
298;9960
298;9962
298;9964
298;9966
299;9968
299;9970
299;9972
299;9974
300;9976
301;9978
301;9980
302;9982
302;9984
303;9986
303;9988
303;9990
303;9992
304;9994
303;9996
303;9998
304;10000
303;10002
303;10004
303;10006
302;10008
302;10010
301;10012
301;10014
302;10016
301;10018
301;10020
300;10022
300;10024
300;10027
300;10029
300;10031
299;10033
300;10035
299;10037
299;10039
299;10041
298;10043
299;10045
298;10047
298;10049
298;10051
297;10053
296;10055
295;10057
293;10059
291;10061
290;10063
288;10065
286;10067
284;10070
282;10072
281;10074
280;10076
280;10078
282;10080
284;10082
289;10084
296;10086
305;10088
318;10090
331;10092
346;10094
362;10096
379;10098
393;10100
411;10102
427;10104
440;10106
451;10108
457;10110
461;10112
462;10114
460;10116
454;10118
449;10120
442;10122
437;10124
432;10126
427;10128
422;10130
417;10132
411;10134
405;10136
400;10138
394;10140
388;10142
382;10144
376;10146
370;10148
365;10150
359;10152
353;10155
348;10157
343;10159
338;10161
331;10163
329;10165
324;10167
321;10169
317;10171
313;10173
310;10175
306;10177
302;10179
299;10181
296;10183
294;10185
291;10187
288;10189
286;10191
284;10193
282;10195
279;10198
277;10200
276;10202
274;10204
273;10206
272;10208
269;10210
269;10212
268;10214
267;10216
266;10218
264;10220
265;10222
264;10224
263;10226
263;10228
263;10230
262;10232
262;10234
262;10236
262;10238
262;10240
262;10242
262;10244
262;10246
262;10248
262;10250
263;10252
263;10254
263;10256
264;10258
264;10260
265;10262
264;10264
265;10266
266;10268
267;10270
265;10272
269;10274
268;10276
270;10278
271;10280
272;10283
273;10285
274;10287
275;10289
276;10291
276;10293
278;10295
279;10297
280;10299
281;10301
283;10303
283;10305
285;10307
287;10309
288;10311
289;10313
292;10315
293;10317
292;10319
296;10321
297;10323
299;10326
301;10328
305;10330
305;10332
307;10334
308;10336
310;10338
311;10340
313;10342
315;10344
317;10346
318;10348
320;10350
322;10352
323;10354
324;10356
326;10358
327;10360
328;10362
329;10364
329;10366
330;10368
330;10370
330;10372
331;10374
330;10376
330;10378
329;10380
325;10382
327;10384
325;10386
324;10388
322;10390
320;10392
319;10394
317;10396
316;10398
312;10400
310;10402
307;10404
305;10406
303;10408
301;10411
299;10413
296;10415
294;10417
292;10419
290;10421
288;10423
286;10425
284;10427
282;10429
281;10431
279;10433
277;10435
277;10437
279;10439
274;10441
272;10443
271;10445
270;10447
269;10449
268;10451
267;10454
267;10456
266;10458
265;10460
264;10462
264;10464
263;10466
263;10468
263;10470
263;10472
262;10474
261;10476
261;10478
261;10480
261;10482
260;10484
262;10486
261;10488
261;10490
260;10492
262;10494
261;10496
261;10498
262;10500
260;10502
262;10504
262;10506
262;10508
262;10510
262;10512
263;10514
263;10516
264;10518
264;10520
264;10522
264;10524
264;10526
265;10528
266;10530
265;10532
266;10534
266;10536
265;10539
267;10541
268;10543
268;10545
268;10547
273;10549
269;10551
269;10553
270;10555
270;10557
270;10559
271;10561
271;10563
272;10565
272;10567
272;10569
272;10571
272;10573
272;10575
273;10577
274;10579
274;10582
274;10584
274;10586
275;10588
275;10590
275;10592
275;10594
276;10596
276;10598
276;10600
276;10602
276;10604
276;10606
277;10608
277;10610
278;10612
278;10614
278;10616
278;10618
279;10620
279;10622
279;10624
278;10626
279;10628
280;10630
280;10632
280;10634
280;10636
280;10638
281;10640
280;10642
281;10644
281;10646
281;10648
281;10650
282;10652
283;10654
283;10656
285;10658
283;10660
283;10662
283;10664
284;10667
284;10669
284;10671
284;10673
285;10675
285;10677
285;10679
285;10681
285;10683
285;10685
286;10687
285;10689
286;10691
286;10693
287;10695
287;10697
286;10699
287;10701
287;10703
288;10705
287;10707
288;10710
288;10712
288;10714
288;10716
288;10718
288;10720
289;10722
289;10724
289;10726
289;10728
289;10730
290;10732
289;10734
290;10736
290;10738
290;10740
291;10742
290;10744
291;10746
291;10748
291;10750
290;10752
291;10754
292;10756
291;10758
291;10760
291;10762
292;10764
292;10766
294;10768
292;10770
292;10772
292;10774
292;10776
293;10778
293;10780
293;10782
293;10784
293;10786
293;10788
294;10790
293;10792
293;10795
293;10797
294;10799
294;10801
294;10803
294;10805
294;10807
294;10809
294;10811
295;10813
295;10815
295;10817
295;10819
294;10821
295;10823
295;10825
295;10827
295;10829
295;10831
296;10833
297;10835
295;10838
296;10840
296;10842
296;10844
296;10846
296;10848
296;10850
297;10852
296;10854
296;10856
296;10858
296;10860
296;10862
296;10864
296;10866
296;10868
296;10870
297;10872
297;10874
298;10876
297;10878
297;10880
297;10882
297;10884
298;10886
298;10888
297;10890
298;10892
298;10894
298;10896
299;10898
300;10900
300;10902
301;10904
302;10906
302;10908
302;10910
303;10912
303;10914
302;10916
303;10918
302;10920
302;10923
302;10925
302;10927
302;10929
301;10931
301;10933
301;10935
301;10937
300;10939
300;10941
300;10943
301;10945
300;10947
299;10949
299;10951
299;10953
298;10955
298;10957
298;10959
298;10961
298;10963
298;10966
297;10968
298;10970
298;10972
297;10974
297;10976
296;10978
295;10980
293;10982
291;10984
289;10986
288;10988
286;10990
281;10992
282;10994
281;10996
280;10998
281;11000
280;11002
285;11004
289;11006
292;11008
300;11010
310;11012
323;11014
337;11016
352;11018
368;11020
385;11022
402;11024
417;11026
432;11028
443;11030
452;11032
457;11034
459;11036
456;11038
450;11040
443;11042
436;11044
430;11046
424;11048
420;11051
415;11053
409;11055
404;11057
399;11059
394;11061
388;11063
383;11065
378;11067
372;11069
366;11071
361;11073
356;11075
350;11077
345;11079
341;11081
336;11083
332;11085
328;11087
323;11089
319;11091
315;11094
311;11096
309;11098
305;11100
299;11102
298;11104
295;11106
292;11108
289;11110
285;11112
285;11114
283;11116
281;11118
279;11120
278;11122
277;11124
275;11126
274;11128
272;11130
271;11132
269;11134
269;11136
268;11138
267;11140
267;11142
266;11144
266;11146
265;11148
265;11150
264;11152
264;11154
264;11156
263;11158
263;11160
263;11162
261;11164
262;11166
263;11168
262;11170
263;11172
264;11174
264;11176
265;11179
265;11181
266;11183
266;11185
267;11187
267;11189
269;11191
269;11193
270;11195
270;11197
271;11199
271;11201
272;11203
274;11205
274;11207
275;11209
274;11211
277;11213
278;11215
279;11217
281;11219
281;11222
283;11224
284;11226
286;11228
287;11230
288;11232
289;11234
291;11236
293;11238
295;11240
296;11242
297;11244
299;11246
300;11248
302;11250
304;11252
306;11254
308;11256
309;11258
311;11260
312;11262
314;11264
315;11266
317;11268
319;11270
320;11272
319;11274
323;11276
324;11278
326;11280
327;11282
328;11284
329;11286
330;11288
330;11290
331;11292
331;11294
330;11296
330;11298
330;11300
329;11302
327;11304
326;11307
324;11309
322;11311
321;11313
319;11315
317;11317
314;11319
310;11321
310;11323
307;11325
304;11327
302;11329
303;11331
298;11333
295;11335
292;11337
291;11339
288;11341
286;11343
284;11345
282;11347
281;11350
279;11352
276;11354
274;11356
274;11358
272;11360
270;11362
269;11364
268;11366
266;11368
265;11370
264;11372
263;11374
263;11376
263;11378
261;11380
260;11382
259;11384
258;11386
259;11388
257;11390
258;11392
257;11394
257;11396
257;11398
257;11400
256;11402
256;11404
255;11406
256;11408
256;11410
256;11412
256;11414
255;11416
256;11418
255;11420
255;11422
256;11424
256;11426
256;11428
256;11430
256;11432
256;11435
257;11437
256;11439
261;11441
257;11443
258;11445
257;11447
258;11449
259;11451
259;11453
260;11455
259;11457
260;11459
260;11461
260;11463
260;11465
261;11467
261;11469
262;11471
262;11473
262;11475
261;11478
263;11480
262;11482
263;11484
262;11486
264;11488
264;11490
264;11492
263;11494
264;11496
265;11498
264;11500
264;11502
265;11504
265;11506
266;11508
266;11510
266;11512
267;11514
266;11516
266;11518
267;11520
267;11522
268;11524
267;11526
268;11528
268;11530
268;11532
268;11534
269;11536
269;11538
268;11540
269;11542
270;11544
269;11546
270;11548
274;11550
270;11552
271;11554
271;11556
271;11558
271;11560
271;11563
271;11565
272;11567
272;11569
272;11571
272;11573
272;11575
272;11577
273;11579
273;11581
273;11583
273;11585
274;11587
273;11589
273;11591
273;11593
274;11595
275;11597
274;11599
274;11601
274;11603
274;11606
274;11608
275;11610
275;11612
275;11614
275;11616
275;11618
276;11620
276;11622
275;11624
275;11626
276;11628
276;11630
276;11632
276;11634
277;11636
277;11638
277;11640
276;11642
277;11644
277;11646
277;11648
276;11650
277;11652
276;11654
277;11656
277;11658
280;11660
277;11662
277;11664
277;11666
277;11668
277;11670
278;11672
277;11674
278;11676
278;11678
278;11680
278;11682
278;11684
278;11686
278;11688
279;11691
279;11693
279;11695
279;11697
279;11699
279;11701
279;11703
279;11705
280;11707
279;11709
279;11711
280;11713
279;11715
279;11717
280;11719
280;11721
280;11723
280;11725
281;11727
280;11729
281;11731
280;11734
280;11736
280;11738
281;11740
281;11742
280;11744
280;11746
281;11748
281;11750
281;11752
281;11754
281;11756
281;11758
281;11760
281;11762
281;11764
281;11766
281;11768
282;11770
282;11772
279;11774
281;11776
282;11778
282;11780
281;11782
282;11784
282;11786
283;11788
282;11790
282;11792
282;11794
283;11796
282;11798
282;11800
283;11802
283;11804
284;11806
283;11808
283;11810
283;11812
283;11814
283;11816
283;11819
283;11821
283;11823
283;11825
283;11827
283;11829
283;11831
284;11833
284;11835
285;11837
283;11839
283;11841
283;11843
283;11845
284;11847
283;11849
283;11851
284;11853
283;11855
283;11857
283;11859
283;11862
284;11864
284;11866
284;11868
284;11870
284;11872
284;11874
284;11876
284;11878
285;11880
285;11882
282;11884
284;11886
285;11888
286;11890
287;11892
288;11894
288;11896
289;11898
290;11900
289;11902
289;11904
290;11906
289;11908
290;11910
290;11912
290;11914
290;11916
290;11918
289;11920
289;11922
289;11924
289;11926
289;11928
288;11930
288;11932
288;11934
287;11936
287;11938
287;11940
287;11942
287;11944
288;11947
286;11949
287;11951
287;11953
286;11955
286;11957
287;11959
287;11961
286;11963
286;11965
286;11967
284;11969
283;11971
282;11973
281;11975
278;11977
277;11979
274;11981
273;11983
271;11985
270;11987
269;11990
270;11992
269;11994
273;11996
279;11998
286;12000
296;12002
306;12004
322;12006
338;12008
354;12010
371;12012
388;12014
405;12016
420;12018
434;12020
444;12022
451;12024
453;12026
452;12028
448;12030
445;12032
438;12034
433;12036
427;12038
422;12040
417;12042
412;12044
407;12046
401;12048
396;12050
391;12052
385;12054
378;12056
373;12058
367;12060
361;12062
356;12064
351;12066
346;12068
341;12070
335;12072
331;12075
325;12077
322;12079
317;12081
314;12083
310;12085
306;12087
302;12089
300;12091
296;12093
293;12095
290;12097
287;12099
285;12101
280;12103
280;12105
277;12107
275;12109
274;12111
269;12113
271;12115
269;12118
267;12120
266;12122
265;12124
264;12126
262;12128
262;12130
261;12132
261;12134
260;12136
260;12138
259;12140
258;12142
258;12144
258;12146
258;12148
257;12150
258;12152
258;12154
258;12156
258;12158
258;12160
259;12162
259;12164
257;12166
259;12168
260;12170
260;12172
261;12174
262;12176
262;12178
263;12180
264;12182
265;12184
266;12186
266;12188
268;12190
268;12192
269;12194
270;12196
271;12198
272;12200
273;12203
274;12205
275;12207
277;12209
278;12211
277;12213
280;12215
282;12217
283;12219
285;12221
288;12223
288;12225
290;12227
291;12229
292;12231
294;12233
296;12235
298;12237
300;12239
302;12241
304;12243
305;12246
307;12248
309;12250
311;12252
312;12254
315;12256
317;12258
318;12260
320;12262
321;12264
323;12266
324;12268
328;12270
328;12272
330;12274
330;12276
332;12278
333;12280
333;12282
334;12284
334;12286
335;12288
335;12290
334;12292
333;12294
333;12296
332;12298
330;12300
329;12302
328;12304
326;12306
324;12308
322;12310
320;12312
317;12314
315;12316
314;12318
311;12320
308;12322
307;12324
304;12326
302;12328
300;12331
303;12333
296;12335
294;12337
292;12339
291;12341
289;12343
288;12345
286;12347
285;12349
283;12351
281;12353
280;12355
278;12357
278;12359
276;12361
276;12363
275;12365
274;12367
273;12369
272;12371
272;12374
270;12376
271;12378
271;12380
270;12382
269;12384
269;12386
269;12388
269;12390
268;12392
268;12394
268;12396
268;12398
268;12400
268;12402
268;12404
268;12406
268;12408
268;12410
269;12412
269;12414
269;12416
269;12418
269;12420
269;12422
269;12424
270;12426
270;12428
270;12430
269;12432
271;12434
271;12436
272;12438
272;12440
276;12442
273;12444
274;12446
273;12448
275;12450
275;12452
276;12454
275;12456
276;12459
276;12461
277;12463
277;12465
277;12467
277;12469
278;12471
279;12473
279;12475
280;12477
280;12479
280;12481
280;12483
281;12485
281;12487
282;12489
282;12491
283;12493
283;12495
283;12497
284;12499
284;12502
284;12504
285;12506
285;12508
286;12510
286;12512
286;12514
286;12516
287;12518
287;12520
288;12522
288;12524
288;12526
288;12528
288;12530
289;12532
290;12534
290;12536
290;12538
290;12540
290;12542
290;12544
291;12546
291;12548
291;12550
294;12552
292;12554
292;12556
292;12558
293;12560
293;12562
293;12564
293;12566
294;12568
294;12570
295;12572
295;12574
295;12576
295;12578
296;12580
296;12582
296;12584
297;12587
297;12589
297;12591
297;12593
297;12595
298;12597
298;12599
298;12601
298;12603
298;12605
298;12607
299;12609
299;12611
300;12613
300;12615
300;12617
301;12619
300;12621
301;12623
301;12625
301;12627
301;12630
302;12632
302;12634
302;12636
302;12638
302;12640
302;12642
302;12644
303;12646
304;12648
304;12650
303;12652
303;12654
304;12656
304;12658
304;12660
305;12662
305;12664
303;12666
305;12668
305;12670
306;12672
305;12674
306;12676
306;12678
306;12680
306;12682
306;12684
306;12686
306;12688
307;12690
306;12692
307;12694
307;12696
307;12698
308;12700
307;12702
308;12704
308;12706
308;12708
309;12710
309;12712
309;12715
309;12717
309;12719
309;12721
309;12723
309;12725
310;12727
311;12729
309;12731
310;12733
310;12735
311;12737
310;12739
310;12741
311;12743
311;12745
311;12747
311;12749
311;12751
311;12753
311;12755
311;12758
312;12760
312;12762
311;12764
311;12766
312;12768
312;12770
313;12772
312;12774
309;12776
311;12778
312;12780
312;12782
312;12784
312;12786
312;12788
312;12790
312;12792
311;12794
313;12796
313;12798
312;12800
313;12802
313;12804
313;12806
313;12808
313;12810
313;12812
313;12814
313;12816
314;12818
314;12820
314;12822
315;12824
315;12826
316;12828
316;12830
317;12832
318;12834
318;12836
318;12838
318;12840
317;12843
318;12845
318;12847
318;12849
318;12851
317;12853
317;12855
317;12857
317;12859
316;12861
316;12863
316;12865
315;12867
315;12869
315;12871
314;12873
314;12875
313;12877
313;12879
314;12881
313;12883
310;12886
312;12888
313;12890
313;12892
313;12894
310;12896
312;12898
312;12900
311;12902
309;12904
308;12906
307;12908
305;12910
303;12912
302;12914
300;12916
298;12918
297;12920
297;12922
297;12924
298;12926
300;12928
303;12930
309;12932
316;12934
326;12936
337;12938
352;12940
366;12942
382;12944
398;12946
411;12948
429;12950
443;12952
454;12954
462;12956
466;12958
467;12960
464;12962
457;12964
450;12966
443;12968
436;12971
430;12973
425;12975
420;12977
415;12979
410;12981
405;12983
400;12985
394;12987
390;12989
385;12991
379;12993
371;12995
369;12997
365;12999
359;13001
355;13003
350;13005
347;13007
343;13009
339;13011
335;13014
331;13016
328;13018
325;13020
322;13022
319;13024
316;13026
313;13028
310;13030
308;13032
307;13034
304;13036
302;13038
300;13040
298;13042
297;13044
294;13046
294;13048
292;13050
293;13052
290;13054
290;13056
286;13058
287;13060
287;13062
286;13064
285;13066
285;13068
284;13070
284;13072
282;13074
283;13076
282;13078
282;13080
281;13082
282;13084
282;13086
282;13088
282;13090
282;13092
281;13094
283;13096
284;13099
283;13101
283;13103
282;13105
284;13107
285;13109
285;13111
285;13113
289;13115
287;13117
288;13119
288;13121
288;13123
290;13125
290;13127
292;13129
293;13131
294;13133
295;13135
296;13137
296;13139
298;13142
299;13144
300;13146
302;13148
303;13150
303;13152
306;13154
307;13156
308;13158
310;13160
313;13162
313;13164
315;13166
316;13168
318;13170
320;13172
322;13174
323;13176
325;13178
327;13180
329;13182
330;13184
331;13186
333;13188
334;13190
336;13192
338;13194
339;13196
341;13198
342;13200
344;13202
344;13204
347;13206
347;13208
349;13210
349;13212
348;13214
350;13216
350;13218
349;13220
349;13222
353;13224
348;13227
346;13229
344;13231
343;13233
341;13235
339;13237
337;13239
335;13241
333;13243
330;13245
328;13247
325;13249
323;13251
320;13253
318;13255
316;13257
313;13259
310;13261
308;13263
305;13265
303;13267
302;13270
301;13272
297;13274
296;13276
294;13278
292;13280
290;13282
288;13284
287;13286
286;13288
285;13290
283;13292
283;13294
281;13296
280;13298
279;13300
278;13302
277;13304
277;13306
276;13308
275;13310
275;13312
274;13314
274;13316
273;13318
273;13320
273;13322
271;13324
272;13326
271;13328
272;13330
272;13332
276;13334
272;13336
272;13338
272;13340
272;13342
272;13344
272;13346
272;13348
272;13350
272;13352
273;13355
272;13357
273;13359
273;13361
273;13363
273;13365
274;13367
274;13369
274;13371
274;13373
274;13375
274;13377
275;13379
276;13381
276;13383
276;13385
276;13387
277;13389
277;13391
277;13393
277;13395
278;13398
278;13400
278;13402
279;13404
279;13406
279;13408
280;13410
280;13412
280;13414
281;13416
281;13418
281;13420
281;13422
281;13424
282;13426
282;13428
283;13430
283;13432
283;13434
282;13436
284;13438
283;13440
284;13442
287;13444
284;13446
285;13448
285;13450
285;13452
285;13454
286;13456
286;13458
286;13460
286;13462
287;13464
287;13466
287;13468
287;13470
287;13472
287;13474
288;13476
288;13478
288;13480
289;13483
289;13485
289;13487
289;13489
290;13491
290;13493
290;13495
290;13497
290;13499
290;13501
290;13503
291;13505
291;13507
292;13509
292;13511
292;13513
292;13515
291;13517
293;13519
292;13521
292;13523
293;13526
293;13528
292;13530
293;13532
294;13534
293;13536
294;13538
294;13540
294;13542
294;13544
294;13546
294;13548
294;13550
294;13552
295;13554
295;13556
293;13558
295;13560
295;13562
295;13564
296;13566
295;13568
296;13570
296;13572
296;13574
296;13576
296;13578
296;13580
296;13582
296;13584
297;13586
297;13588
297;13590
297;13592
296;13594
298;13596
297;13598
298;13600
298;13602
298;13604
298;13606
297;13608
298;13611
298;13613
298;13615
298;13617
298;13619
300;13621
299;13623
298;13625
299;13627
299;13629
300;13631
299;13633
299;13635
299;13637
299;13639
299;13641
299;13643
299;13645
300;13647
300;13649
300;13651
300;13654
299;13656
300;13658
300;13660
301;13662
300;13664
300;13666
298;13668
301;13670
301;13672
300;13674
300;13676
300;13678
301;13680
301;13682
301;13684
300;13686
300;13688
300;13690
301;13692
301;13694
301;13696
301;13698
301;13700
301;13702
300;13704
300;13706
300;13708
301;13710
301;13712
301;13714
300;13716
301;13718
300;13720
300;13722
301;13724
301;13726
301;13728
302;13730
301;13732
300;13734
301;13736
300;13739
301;13741
301;13743
301;13745
300;13747
300;13749
301;13751
301;13753
300;13755
301;13757
300;13759
300;13761
301;13763
300;13765
300;13767
300;13769
300;13771
301;13773
300;13775
298;13777
300;13779
300;13782
300;13784
300;13786
298;13788
300;13790
300;13792
300;13794
299;13796
300;13798
299;13800
299;13802
299;13804
299;13806
300;13808
299;13810
299;13812
299;13814
300;13816
299;13818
300;13820
300;13822
300;13824
299;13826
299;13828
300;13830
299;13832
299;13834
301;13836
301;13838
300;13840
302;13842
302;13844
303;13846
303;13848
303;13850
304;13852
304;13854
303;13856
304;13858
303;13860
302;13862
302;13864
303;13867
302;13869
302;13871
301;13873
301;13875
301;13877
301;13879
300;13881
300;13883
300;13885
297;13887
299;13889
298;13891
298;13893
298;13895
296;13897
298;13899
298;13901
298;13903
297;13905
297;13907
296;13910
297;13912
296;13914
295;13916
294;13918
292;13920
290;13922
288;13924
286;13926
284;13928
282;13930
280;13932
279;13934
278;13936
279;13938
281;13940
283;13942
292;13944
296;13946
306;13948
317;13950
325;13952
339;13954
355;13956
371;13958
387;13960
404;13962
420;13964
434;13966
445;13968
453;13970
459;13972
459;13974
458;13976
452;13978
447;13980
441;13982
435;13984
430;13986
426;13988
420;13990
415;13992
410;13995
401;13997
398;13999
393;14001
386;14003
380;14005
373;14007
369;14009
363;14011
357;14013
351;14015
347;14017
342;14019
337;14021
332;14023
328;14025
323;14027
319;14029
315;14031
311;14033
308;14035
304;14038
301;14040
298;14042
295;14044
292;14046
289;14048
287;14050
285;14052
285;14054
281;14056
279;14058
277;14060
275;14062
273;14064
272;14066
270;14068
269;14070
268;14072
266;14074
265;14076
265;14078
264;14080
263;14082
263;14084
263;14086
262;14088
262;14090
262;14092
260;14094
261;14096
261;14098
260;14100
260;14102
260;14104
258;14106
260;14108
260;14110
260;14112
261;14114
263;14116
262;14118
262;14120
262;14123
263;14125
263;14127
264;14129
265;14131
266;14133
266;14135
267;14137
268;14139
269;14141
269;14143
269;14145
271;14147
272;14149
273;14151
273;14153
275;14155
276;14157
277;14159
278;14161
281;14163
281;14166
282;14168
283;14170
285;14172
286;14174
288;14176
289;14178
291;14180
293;14182
295;14184
296;14186
298;14188
300;14190
301;14192
303;14194
305;14196
307;14198
308;14200
310;14202
311;14204
313;14206
314;14208
315;14210
318;14212
319;14214
319;14216
322;14218
323;14220
325;14222
326;14224
331;14226
328;14228
328;14230
329;14232
329;14234
329;14236
329;14238
328;14240
328;14242
327;14244
325;14246
323;14248
322;14251
320;14253
318;14255
316;14257
314;14259
312;14261
309;14263
307;14265
304;14267
302;14269
300;14271
299;14273
296;14275
293;14277
290;14279
289;14281
286;14283
284;14285
282;14287
281;14289
279;14291
277;14294
275;14296
273;14298
272;14300
271;14302
270;14304
268;14306
267;14308
266;14310
265;14312
264;14314
263;14316
262;14318
262;14320
261;14322
261;14324
260;14326
260;14328
259;14330
258;14332
259;14334
262;14336
258;14338
258;14340
258;14342
257;14344
257;14346
257;14348
257;14350
258;14352
257;14354
257;14356
258;14358
257;14360
258;14362
258;14364
258;14366
259;14368
258;14370
258;14372
259;14374
258;14376
259;14379
260;14381
261;14383
260;14385
261;14387
261;14389
261;14391
261;14393
262;14395
262;14397
263;14399
263;14401
263;14403
264;14405
264;14407
264;14409
265;14411
265;14413
265;14415
266;14417
266;14419
267;14422
266;14424
267;14426
267;14428
267;14430
268;14432
268;14434
269;14436
269;14438
269;14440
269;14442
269;14444
270;14446
270;14448
270;14450
270;14452
271;14454
272;14456
271;14458
272;14460
272;14462
273;14464
273;14466
273;14468
273;14470
274;14472
273;14474
274;14476
274;14478
275;14480
274;14482
275;14484
275;14486
275;14488
275;14490
276;14492
276;14494
276;14496
276;14498
277;14500
277;14502
277;14504
277;14507
278;14509
278;14511
278;14513
279;14515
279;14517
279;14519
279;14521
279;14523
279;14525
280;14527
280;14529
280;14531
280;14533
280;14535
281;14537
281;14539
281;14541
281;14543
281;14545
281;14547
282;14550
281;14552
282;14554
282;14556
283;14558
281;14560
283;14562
283;14564
282;14566
284;14568
283;14570
284;14572
284;14574
285;14576
284;14578
284;14580
285;14582
285;14584
285;14586
285;14588
286;14590
286;14592
286;14594
286;14596
286;14598
286;14600
287;14602
287;14604
287;14606
287;14608
287;14610
287;14612
287;14614
287;14616
288;14618
288;14620
289;14622
288;14624
288;14626
288;14628
289;14630
288;14632
289;14635
289;14637
289;14639
289;14641
289;14643
289;14645
289;14647
289;14649
290;14651
290;14653
290;14655
290;14657
289;14659
290;14661
290;14663
290;14665
291;14667
288;14669
290;14671
291;14673
291;14675
291;14678
291;14680
291;14682
291;14684
291;14686
291;14688
291;14690
292;14692
291;14694
292;14696
292;14698
292;14700
292;14702
292;14704
292;14706
292;14708
292;14710
293;14712
293;14714
291;14716
293;14718
292;14720
292;14722
292;14724
293;14726
293;14728
293;14730
295;14732
293;14734
293;14736
293;14738
293;14740
293;14742
294;14744
294;14746
294;14748
293;14750
293;14752
293;14754
293;14756
294;14758
294;14760
294;14763
294;14765
294;14767
295;14769
294;14771
295;14773
295;14775
295;14777
292;14779
295;14781
295;14783
295;14785
294;14787
294;14789
294;14791
294;14793
293;14795
293;14797
294;14799
294;14801
294;14803
295;14806
295;14808
295;14810
295;14812
295;14814
295;14816
295;14818
295;14820
296;14822
296;14824
295;14826
296;14828
296;14830
297;14832
297;14834
303;14836
299;14838
300;14840
300;14842
300;14844
300;14846
300;14848
300;14850
300;14852
300;14854
300;14856
301;14858
300;14860
299;14862
298;14864
298;14866
299;14868
298;14870
298;14872
297;14874
297;14876
297;14878
297;14880
296;14882
296;14884
296;14886
293;14888
295;14891
296;14893
295;14895
296;14897
294;14899
295;14901
295;14903
294;14905
293;14907
293;14909
291;14911
290;14913
288;14915
286;14917
285;14919
283;14921
280;14923
279;14925
278;14927
278;14929
279;14931
280;14934
283;14936
288;14938
296;14940
306;14942
318;14944
335;14946
348;14948
364;14950
379;14952
397;14954
412;14956
427;14958
438;14960
448;14962
453;14964
454;14966
452;14968
446;14970
439;14972
432;14974
429;14976
422;14978
416;14980
410;14982
405;14984
399;14986
394;14988
389;14990
383;14992
379;14994
373;14996
366;14998
363;15000
357;15002
352;15004
346;15006
340;15008
337;15010
333;15012
328;15014
324;15016
320;15019
316;15021
312;15023
309;15025
305;15027
302;15029
298;15031
297;15033
293;15035
290;15037
287;15039
286;15041
284;15043
281;15045
279;15047
277;15049
276;15051
274;15053
275;15055
272;15057
270;15059
269;15062
268;15064
267;15066
266;15068
265;15070
265;15072
264;15074
264;15076
263;15078
263;15080
263;15082
262;15084
261;15086
262;15088
262;15090
262;15092
261;15094
261;15096
261;15098
263;15100
262;15102
263;15104
263;15106
261;15108
263;15110
264;15112
264;15114
265;15116
268;15118
266;15120
267;15122
268;15124
268;15126
268;15128
269;15130
271;15132
272;15134
273;15136
273;15138
274;15140
276;15142
277;15144
277;15147
279;15149
280;15151
282;15153
282;15155
284;15157
286;15159
287;15161
289;15163
292;15165
292;15167
294;15169
295;15171
297;15173
299;15175
300;15177
302;15179
304;15181
306;15183
308;15185
310;15187
312;15190
313;15192
316;15194
318;15196
319;15198
321;15200
323;15202
324;15204
326;15206
328;15208
329;15210
331;15212
332;15214
333;15216
334;15218
334;15220
335;15222
335;15224
335;15226
335;15228
335;15230
334;15232
333;15234
332;15236
331;15238
329;15240
327;15242
325;15244
323;15246
321;15248
318;15250
316;15252
313;15254
311;15256
309;15258
306;15260
303;15262
301;15264
299;15266
296;15268
294;15270
291;15272
290;15275
287;15277
285;15279
283;15281
281;15283
279;15285
278;15287
276;15289
275;15291
273;15293
272;15295
271;15297
269;15299
268;15301
266;15303
265;15305
265;15307
264;15309
264;15311
262;15313
263;15315
261;15318
261;15320
261;15322
261;15324
260;15326
260;15328
259;15330
260;15332
260;15334
259;15336
259;15338
259;15340
259;15342
259;15344
259;15346
259;15348
260;15350
260;15352
261;15354
261;15356
261;15358
261;15360
262;15362
262;15364
262;15366
262;15368
264;15370
263;15372
264;15374
264;15376
265;15378
265;15380
266;15382
267;15384
267;15386
267;15388
267;15390
268;15392
268;15394
268;15396
270;15398
270;15400
270;15403
271;15405
271;15407
272;15409
272;15411
272;15413
273;15415
273;15417
274;15419
275;15421
274;15423
275;15425
275;15427
275;15429
276;15431
276;15433
276;15435
277;15437
277;15439
278;15441
278;15443
278;15446
279;15448
279;15450
277;15452
280;15454
280;15456
280;15458
281;15460
281;15462
281;15464
281;15466
282;15468
282;15470
282;15472
283;15474
283;15476
283;15478
284;15480
284;15482
283;15484
284;15486
284;15488
284;15490
284;15492
285;15494
286;15496
286;15498
286;15500
286;15502
286;15504
286;15506
286;15508
287;15510
287;15512
287;15514
287;15516
287;15518
287;15520
287;15522
287;15524
288;15526
288;15528
288;15531
287;15533
288;15535
289;15537
288;15539
288;15541
289;15543
289;15545
289;15547
289;15549
290;15551
289;15553
289;15555
290;15557
290;15559
288;15561
291;15563
290;15565
291;15567
291;15569
291;15571
291;15574
291;15576
291;15578
291;15580
291;15582
291;15584
292;15586
292;15588
292;15590
292;15592
292;15594
293;15596
292;15598
292;15600
292;15602
293;15604
293;15606
291;15608
292;15610
293;15612
293;15614
293;15616
293;15618
294;15620
294;15622
295;15624
293;15626
294;15628
293;15630
294;15632
295;15634
295;15636
295;15638
295;15640
295;15642
295;15644
295;15646
295;15648
296;15650
296;15652
296;15654
296;15656
296;15659
296;15661
296;15663
296;15665
296;15667
297;15669
293;15671
296;15673
296;15675
296;15677
296;15679
296;15681
297;15683
298;15685
297;15687
298;15689
299;15691
298;15693
298;15695
299;15697
300;15699
300;15702
300;15704
300;15706
301;15708
301;15710
302;15712
302;15714
302;15716
302;15718
303;15720
303;15722
303;15724
303;15726
307;15728
303;15730
303;15732
302;15734
302;15736
302;15738
301;15740
300;15742
300;15744
301;15746
300;15748
300;15750
299;15752
299;15754
299;15756
299;15758
298;15760
298;15762
297;15764
296;15766
297;15768
297;15770
296;15772
296;15774
296;15776
296;15778
293;15780
295;15782
294;15784
294;15787
293;15789
290;15791
290;15793
289;15795
287;15797
285;15799
283;15801
282;15803
280;15805
279;15807
279;15809
280;15811
280;15813
284;15815
289;15817
296;15819
305;15821
317;15823
329;15825
342;15827
356;15830
371;15832
385;15834
399;15836
416;15838
423;15840
431;15842
436;15844
437;15846
436;15848
432;15850
427;15852
421;15854
416;15856
411;15858
406;15860
402;15862
398;15864
393;15866
387;15868
383;15870
381;15872
375;15874
369;15876
364;15878
359;15880
355;15882
349;15884
345;15886
341;15888
334;15890
332;15892
328;15894
325;15896
320;15898
315;15900
314;15902
311;15904
308;15906
305;15908
302;15910
299;15912
296;15915
294;15917
292;15919
290;15921
288;15923
286;15925
284;15927
282;15929
281;15931
279;15933
278;15935
276;15937
275;15939
274;15941
273;15943
272;15945
274;15947
271;15949
270;15951
269;15953
269;15955
268;15958
268;15960
268;15962
268;15964
267;15966
267;15968
267;15970
267;15972
267;15974
267;15976
267;15978
268;15980
268;15982
268;15984
268;15986
269;15988
269;15990
270;15992
271;15994
271;15996
272;15998
270;16000
273;16002
273;16004
273;16006
275;16008
277;16010
277;16012
278;16014
278;16016
279;16018
280;16020
281;16022
282;16024
283;16026
285;16028
286;16030
287;16032
288;16034
289;16036
291;16038
293;16040
294;16043
295;16045
296;16047
299;16049
299;16051
301;16053
302;16055
307;16057
306;16059
308;16061
310;16063
311;16065
313;16067
315;16069
317;16071
318;16073
320;16075
321;16077
323;16079
325;16081
326;16083
327;16086
328;16088
330;16090
331;16092
332;16094
333;16096
334;16098
334;16100
334;16102
335;16104
335;16106
334;16108
333;16110
332;16112
332;16114
330;16116
329;16118
328;16120
325;16122
325;16124
321;16126
320;16128
318;16130
316;16132
314;16134
312;16136
309;16138
307;16140
304;16142
302;16144
299;16146
298;16148
295;16150
293;16152
291;16154
288;16156
287;16158
285;16160
283;16162
282;16164
281;16166
279;16168
277;16171
275;16173
274;16175
273;16177
272;16179
271;16181
270;16183
269;16185
269;16187
267;16189
267;16191
266;16193
266;16195
265;16197
265;16199
264;16201
264;16203
263;16205
263;16207
263;16209
263;16211
263;16214
262;16216
262;16218
262;16220
262;16222
262;16224
261;16226
262;16228
263;16230
262;16232
263;16234
263;16236
263;16238
263;16240
262;16242
263;16244
264;16246
264;16248
264;16250
265;16252
264;16254
265;16256
265;16258
265;16260
266;16262
266;16264
266;16266
266;16268
268;16270
267;16272
267;16274
269;16276
269;16278
269;16280
269;16282
269;16284
269;16286
271;16288
271;16290
271;16292
272;16294
272;16296
271;16299
272;16301
272;16303
274;16305
273;16307
274;16309
274;16311
275;16313
274;16315
276;16317
275;16319
275;16321
276;16323
276;16325
277;16327
278;16329
278;16331
278;16333
277;16335
278;16337
278;16339
279;16342
277;16344
279;16346
279;16348
279;16350
280;16352
280;16354
281;16356
281;16358
281;16360
281;16362
281;16364
282;16366
282;16368
283;16370
283;16372
283;16374
283;16376
283;16378
283;16380
284;16382
284;16384
284;16386
285;16388
285;16390
285;16392
284;16394
285;16396
286;16398
286;16400
286;16402
286;16404
287;16406
286;16408
286;16410
287;16412
287;16414
287;16416
288;16418
288;16420
288;16422
288;16424
288;16427
289;16429
288;16431
289;16433
289;16435
289;16437
289;16439
290;16441
289;16443
290;16445
290;16447
290;16449
291;16451
288;16453
290;16455
291;16457
291;16459
291;16461
292;16463
292;16465
292;16467
292;16470
292;16472
292;16474
292;16476
292;16478
293;16480
293;16482
293;16484
293;16486
293;16488
293;16490
293;16492
293;16494
294;16496
294;16498
292;16500
294;16502
293;16504
293;16506
294;16508
297;16510
295;16512
295;16514
295;16516
294;16518
294;16520
294;16522
294;16524
295;16526
295;16528
295;16530
296;16532
295;16534
295;16536
295;16538
295;16540
296;16542
296;16544
296;16546
296;16548
296;16550
296;16552
295;16555
296;16557
296;16559
297;16561
294;16563
297;16565
296;16567
297;16569
297;16571
296;16573
297;16575
297;16577
297;16579
297;16581
297;16583
296;16585
297;16587
297;16589
297;16591
297;16593
297;16595
297;16598
297;16600
297;16602
297;16604
297;16606
298;16608
297;16610
297;16612
297;16614
298;16616
298;16618
302;16620
298;16622
298;16624
298;16626
298;16628
298;16630
299;16632
299;16634
299;16636
299;16638
299;16640
299;16642
299;16644
299;16646
299;16648
299;16650
299;16652
299;16654
299;16656
299;16658
299;16660
299;16662
299;16664
299;16666
299;16668
299;16670
296;16672
299;16674
299;16676
299;16678
299;16680
298;16683
300;16685
300;16687
300;16689
298;16691
300;16693
299;16695
299;16697
300;16699
300;16701
300;16703
300;16705
299;16707
299;16709
300;16711
299;16713
300;16715
300;16717
298;16719
300;16721
299;16723
299;16726
300;16728
303;16730
299;16732
300;16734
300;16736
300;16738
300;16740
300;16742
300;16744
300;16746
301;16748
301;16750
300;16752
300;16754
301;16756
301;16758
301;16760
301;16762
302;16764
302;16766
303;16768
304;16770
304;16772
304;16774
304;16776
305;16778
305;16780
303;16782
305;16784
305;16786
305;16788
305;16790
302;16792
305;16794
304;16796
303;16798
303;16800
303;16802
302;16804
303;16806
302;16808
302;16811
302;16813
300;16815
300;16817
300;16819
300;16821
300;16823
300;16825
300;16827
298;16829
299;16831
299;16833
299;16835
299;16837
301;16839
298;16841
297;16843
296;16845
294;16847
292;16849
291;16851
289;16854
287;16856
285;16858
284;16860
283;16862
281;16864
281;16866
283;16868
285;16870
290;16872
297;16874
306;16876
318;16878
330;16880
344;16882
358;16884
373;16886
388;16888
403;16890
417;16892
428;16894
433;16896
441;16898
446;16900
450;16902
446;16904
441;16906
436;16908
431;16910
426;16912
422;16914
417;16916
413;16918
409;16920
404;16922
399;16924
393;16926
386;16928
381;16930
376;16932
370;16934
365;16936
359;16939
354;16941
349;16943
344;16945
340;16947
337;16949
331;16951
326;16953
322;16955
318;16957
315;16959
311;16961
308;16963
305;16965
302;16967
299;16969
296;16971
293;16973
291;16975
289;16977
286;16979
284;16982
282;16984
281;16986
278;16988
277;16990
275;16992
273;16994
273;16996
271;16998
270;17000
269;17002
269;17004
267;17006
266;17008
266;17010
266;17012
265;17014
267;17016
264;17018
264;17020
263;17022
264;17024
263;17026
263;17028
263;17030
264;17032
263;17034
263;17036
264;17038
264;17040
264;17042
265;17044
265;17046
266;17048
266;17050
266;17052
267;17054
268;17056
269;17058
269;17060
269;17062
270;17064
271;17067
271;17069
273;17071
273;17073
275;17075
275;17077
277;17079
277;17081
278;17083
279;17085
281;17087
281;17089
283;17091
284;17093
286;17095
287;17097
288;17099
289;17101
290;17103
292;17105
294;17107
295;17110
296;17112
298;17114
300;17116
302;17118
303;17120
305;17122
307;17124
309;17126
309;17128
311;17130
313;17132
314;17134
316;17136
318;17138
319;17140
320;17142
322;17144
323;17146
325;17148
325;17150
327;17152
328;17154
329;17156
328;17158
330;17160
330;17162
329;17164
329;17166
330;17168
329;17170
328;17172
327;17174
326;17176
324;17178
323;17180
321;17182
319;17184
317;17186
315;17188
312;17190
310;17192
308;17195
306;17197
304;17199
302;17201
300;17203
299;17205
296;17207
294;17209
292;17211
290;17213
288;17215
287;17217
285;17219
283;17221
282;17223
280;17225
279;17227
277;17229
276;17231
275;17233
273;17235
273;17238
272;17240
271;17242
271;17244
270;17246
270;17248
269;17250
268;17252
267;17254
267;17256
267;17258
266;17260
266;17262
266;17264
266;17266
265;17268
265;17270
265;17272
265;17274
265;17276
265;17278
265;17280
265;17282
265;17284
265;17286
265;17288
265;17290
266;17292
266;17294
266;17296
267;17298
267;17300
266;17302
267;17304
267;17306
267;17308
268;17310
268;17312
268;17314
268;17316
269;17318
269;17320
270;17323
270;17325
270;17327
271;17329
271;17331
271;17333
272;17335
272;17337
272;17339
272;17341
273;17343
270;17345
273;17347
273;17349
273;17351
274;17353
274;17355
275;17357
275;17359
276;17361
276;17363
276;17366
275;17368
276;17370
276;17372
277;17374
277;17376
277;17378
277;17380
277;17382
278;17384
277;17386
278;17388
278;17390
277;17392
278;17394
279;17396
279;17398
279;17400
281;17402
280;17404
280;17406
282;17408
281;17410
281;17412
281;17414
281;17416
281;17418
282;17420
282;17422
283;17424
282;17426
283;17428
283;17430
283;17432
283;17434
284;17436
284;17438
284;17440
284;17442
284;17444
284;17446
285;17448
285;17451
285;17453
282;17455
285;17457
286;17459
286;17461
286;17463
286;17465
286;17467
287;17469
286;17471
287;17473
287;17475
287;17477
287;17479
288;17481
288;17483
288;17485
288;17487
288;17489
288;17491
288;17494
288;17496
289;17498
289;17500
288;17502
289;17504
289;17506
289;17508
289;17510
294;17512
290;17514
291;17516
291;17518
290;17520
291;17522
290;17524
291;17526
291;17528
291;17530
292;17532
291;17534
292;17536
292;17538
291;17540
292;17542
292;17544
293;17546
292;17548
292;17550
293;17552
293;17554
293;17556
293;17558
293;17560
293;17562
290;17564
293;17566
293;17568
294;17570
294;17572
293;17574
294;17576
294;17579
294;17581
294;17583
294;17585
295;17587
295;17589
295;17591
295;17593
295;17595
295;17597
295;17599
295;17601
295;17603
295;17605
295;17607
296;17609
294;17611
295;17613
296;17615
295;17617
296;17619
300;17622
296;17624
296;17626
296;17628
296;17630
296;17632
296;17634
296;17636
296;17638
297;17640
297;17642
296;17644
297;17646
297;17648
297;17650
297;17652
297;17654
297;17656
297;17658
297;17660
297;17662
297;17664
297;17666
297;17668
298;17670
297;17672
295;17674
298;17676
297;17678
297;17680
298;17682
296;17684
298;17686
298;17688
297;17690
298;17692
296;17694
298;17696
296;17698
297;17700
297;17702
297;17704
297;17707
297;17709
297;17711
298;17713
297;17715
298;17717
298;17719
297;17721
298;17723
297;17725
298;17727
299;17729
302;17731
299;17733
300;17735
301;17737
301;17739
302;17741
302;17743
302;17745
303;17747
303;17750
303;17752
303;17754
303;17756
304;17758
303;17760
302;17762
302;17764
302;17766
302;17768
302;17770
301;17772
301;17774
300;17776
301;17778
300;17780
300;17782
299;17784
299;17786
299;17788
299;17790
299;17792
296;17794
299;17796
299;17798
299;17800
298;17802
299;17804
298;17806
298;17808
298;17810
296;17812
295;17814
294;17816
291;17818
290;17820
288;17822
285;17824
284;17826
283;17828
280;17830
281;17832
283;17835
285;17837
287;17839
295;17841
299;17843
309;17845
321;17847
335;17849
350;17851
365;17853
381;17855
398;17857
413;17859
428;17861
439;17863
447;17865
452;17867
453;17869
450;17871
445;17873
439;17875
431;17878
424;17880
418;17882
413;17884
409;17886
405;17888
399;17890
394;17892
390;17894
384;17896
379;17898
374;17900
368;17902
363;17904
358;17906
353;17908
348;17910
343;17912
338;17914
334;17916
329;17918
327;17920
323;17922
320;17924
316;17926
312;17928
310;17930
305;17932
302;17934
300;17936
297;17938
294;17940
292;17942
289;17944
287;17946
285;17948
285;17950
282;17952
280;17954
278;17956
276;17958
275;17960
274;17963
272;17965
272;17967
271;17969
270;17971
270;17973
268;17975
267;17977
268;17979
266;17981
266;17983
266;17985
266;17987
265;17989
265;17991
265;17993
265;17995
265;17997
265;17999
266;18001
266;18003
266;18006
265;18008
266;18010
266;18012
267;18014
268;18016
270;18018
269;18020
269;18022
269;18024
271;18026
271;18028
272;18030
273;18032
274;18034
274;18036
275;18038
276;18040
276;18042
278;18044
279;18046
280;18048
280;18050
281;18052
283;18054
285;18056
285;18058
288;18060
288;18062
290;18064
291;18066
292;18068
294;18070
296;18072
297;18074
299;18076
301;18078
303;18080
304;18082
305;18084
307;18086
309;18088
311;18091
313;18093
315;18095
316;18097
317;18099
319;18101
321;18103
323;18105
324;18107
326;18109
327;18111
328;18113
330;18115
331;18117
332;18119
333;18121
334;18123
334;18125
334;18127
334;18129
333;18131
333;18134
333;18136
331;18138
330;18140
329;18142
327;18144
325;18146
323;18148
321;18150
319;18152
317;18154
315;18156
313;18158
310;18160
307;18162
306;18164
302;18166
301;18168
299;18170
296;18172
291;18174
293;18176
291;18178
289;18180
287;18182
285;18184
283;18186
282;18188
280;18190
278;18192
277;18194
276;18196
275;18198
272;18200
272;18202
271;18204
270;18206
269;18208
268;18210
267;18212
267;18214
266;18216
266;18219
265;18221
264;18223
264;18225
263;18227
263;18229
263;18231
263;18233
263;18235
261;18237
262;18239
262;18241
262;18243
262;18245
262;18247
263;18249
262;18251
262;18253
262;18255
263;18257
262;18259
263;18262
263;18264
264;18266
264;18268
263;18270
264;18272
265;18274
264;18276
264;18278
266;18280
266;18282
265;18284
267;18286
266;18288
267;18290
267;18292
267;18294
268;18296
269;18298
269;18300
269;18302
269;18304
270;18306
270;18308
271;18310
271;18312
272;18314
272;18316
272;18318
273;18320
273;18322
273;18324
274;18326
274;18328
274;18330
274;18332
275;18334
276;18336
276;18338
276;18340
276;18342
277;18344
274;18347
277;18349
277;18351
278;18353
277;18355
278;18357
279;18359
279;18361
280;18363
280;18365
279;18367
280;18369
281;18371
281;18373
281;18375
281;18377
282;18379
282;18381
281;18383
282;18385
282;18387
283;18390
283;18392
281;18394
283;18396
284;18398
284;18400
285;18402
287;18404
285;18406
285;18408
285;18410
285;18412
285;18414
286;18416
286;18418
287;18420
287;18422
287;18424
287;18426
288;18428
288;18430
287;18432
288;18434
289;18436
289;18438
289;18440
289;18442
289;18444
289;18446
289;18448
290;18450
290;18452
290;18454
288;18456
291;18458
291;18460
290;18462
291;18464
291;18466
292;18468
292;18470
292;18472
292;18475
292;18477
293;18479
293;18481
293;18483
293;18485
293;18487
293;18489
293;18491
293;18493
294;18495
294;18497
294;18499
294;18501
293;18503
295;18505
295;18507
295;18509
295;18511
299;18513
295;18515
295;18518
295;18520
295;18522
295;18524
296;18526
296;18528
296;18530
296;18532
296;18534
297;18536
296;18538
296;18540
297;18542
296;18544
297;18546
296;18548
296;18550
296;18552
296;18554
297;18556
297;18558
297;18560
298;18562
298;18564
296;18566
298;18568
298;18570
299;18572
298;18574
298;18576
299;18578
300;18580
300;18582
300;18584
301;18586
301;18588
302;18590
303;18592
303;18594
304;18596
303;18598
303;18600
304;18603
303;18605
304;18607
304;18609
303;18611
302;18613
303;18615
302;18617
302;18619
302;18621
305;18623
302;18625
301;18627
301;18629
300;18631
301;18633
300;18635
300;18637
300;18639
300;18641
299;18643
299;18646
299;18648
299;18650
299;18652
298;18654
298;18656
298;18658
298;18660
297;18662
296;18664
294;18666
293;18668
292;18670
290;18672
288;18674
286;18676
285;18678
283;18680
282;18682
282;18684
284;18686
284;18688
287;18690
291;18692
298;18694
306;18696
317;18698
330;18700
344;18702
359;18704
374;18706
389;18708
404;18710
418;18712
430;18714
440;18716
446;18718
448;18720
447;18722
443;18724
436;18726
429;18728
422;18731
419;18733
411;18735
406;18737
401;18739
396;18741
391;18743
386;18745
382;18747
377;18749
372;18751
367;18753
362;18755
357;18757
352;18759
347;18761
342;18763
338;18765
334;18767
330;18769
326;18771
322;18774
319;18776
314;18778
312;18780
309;18782
306;18784
303;18786
300;18788
298;18790
295;18792
293;18794
290;18796
288;18798
287;18800
284;18802
282;18804
281;18806
279;18808
278;18810
277;18812
276;18814
275;18816
274;18818
272;18820
271;18822
271;18824
271;18826
271;18828
270;18830
269;18832
269;18834
268;18836
269;18838
268;18840
270;18842
268;18844
268;18846
268;18848
268;18850
268;18852
268;18854
268;18856
269;18859
269;18861
270;18863
270;18865
269;18867
271;18869
271;18871
272;18873
273;18875
273;18877
274;18879
274;18881
275;18883
276;18885
277;18887
278;18889
279;18891
280;18893
281;18895
282;18897
283;18899
284;18902
285;18904
286;18906
288;18908
291;18910
290;18912
292;18914
293;18916
295;18918
296;18920
297;18922
299;18924
301;18926
302;18928
304;18930
305;18932
307;18934
309;18936
311;18938
313;18940
314;18942
315;18944
317;18946
318;18948
320;18950
323;18952
323;18954
325;18956
326;18958
327;18960
329;18962
330;18964
331;18966
333;18968
334;18970
335;18972
335;18974
335;18976
335;18978
335;18980
335;18982
334;18984
333;18987
332;18989
330;18991
329;18993
327;18995
326;18997
323;18999
321;19001
319;19003
316;19005
314;19007
311;19009
309;19011
307;19013
304;19015
302;19017
300;19019
297;19021
294;19023
293;19025
291;19027
288;19030
287;19032
285;19034
283;19036
282;19038
280;19040
278;19042
277;19044
276;19046
274;19048
273;19050
272;19052
271;19054
269;19056
269;19058
268;19060
267;19062
267;19064
263;19066
265;19068
264;19070
264;19072
263;19074
263;19076
263;19078
263;19080
263;19082
262;19084
262;19086
262;19088
262;19090
262;19092
262;19094
262;19096
262;19098
262;19100
262;19102
262;19104
261;19106
262;19108
263;19110
263;19112
262;19115
262;19117
263;19119
264;19121
263;19123
264;19125
265;19127
263;19129
265;19131
266;19133
266;19135
266;19137
267;19139
267;19141
268;19143
268;19145
268;19147
268;19149
269;19151
270;19153
270;19155
270;19158
271;19160
271;19162
271;19164
272;19166
272;19168
271;19170
273;19172
273;19174
271;19176
274;19178
274;19180
274;19182
275;19184
272;19186
275;19188
276;19190
276;19192
276;19194
277;19196
277;19198
276;19200
276;19202
277;19204
278;19206
278;19208
278;19210
279;19212
279;19214
279;19216
279;19218
279;19220
280;19222
280;19224
280;19226
280;19228
281;19230
281;19232
281;19234
282;19236
280;19238
282;19240
283;19243
282;19245
282;19247
283;19249
283;19251
283;19253
283;19255
284;19257
284;19259
285;19261
284;19263
285;19265
285;19267
285;19269
285;19271
286;19273
286;19275
286;19277
286;19279
287;19281
287;19283
285;19286
287;19288
287;19290
286;19292
287;19294
290;19296
288;19298
288;19300
289;19302
288;19304
288;19306
288;19308
289;19310
289;19312
289;19314
289;19316
289;19318
289;19320
290;19322
289;19324
290;19326
290;19328
290;19330
290;19332
290;19334
291;19336
291;19338
291;19340
291;19342
291;19344
291;19346
289;19348
291;19350
292;19352
292;19354
292;19356
292;19358
293;19360
293;19362
293;19364
292;19366
292;19368
293;19371
293;19373
293;19375
293;19377
294;19379
294;19381
293;19383
293;19385
294;19387
293;19389
294;19391
295;19393
292;19395
295;19397
294;19399
295;19401
294;19403
299;19405
295;19407
295;19409
295;19411
295;19414
295;19416
295;19418
294;19420
295;19422
295;19424
296;19426
295;19428
295;19430
295;19432
295;19434
295;19436
296;19438
296;19440
295;19442
296;19444
296;19446
296;19448
296;19450
297;19452
296;19454
297;19456
293;19458
297;19460
296;19462
296;19464
296;19466
296;19468
297;19470
297;19472
297;19474
297;19476
297;19478
297;19480
297;19482
297;19484
297;19486
297;19488
298;19490
297;19492
297;19494
297;19496
298;19499
298;19501
298;19503
297;19505
297;19507
297;19509
297;19511
297;19513
302;19515
298;19517
298;19519
298;19521
298;19523
298;19525
298;19527
298;19529
298;19531
298;19533
298;19535
298;19537
298;19539
298;19542
298;19544
298;19546
298;19548
298;19550
297;19552
297;19554
298;19556
298;19558
298;19560
299;19562
298;19564
299;19566
299;19568
298;19570
298;19572
298;19574
299;19576
299;19578
300;19580
300;19582
299;19584
299;19586
299;19588
300;19590
301;19592
302;19594
303;19596
303;19598
303;19600
303;19602
303;19604
304;19606
304;19608
304;19610
304;19612
302;19614
304;19616
303;19618
303;19620
303;19622
306;19624
303;19627
302;19629
302;19631
302;19633
301;19635
302;19637
301;19639
301;19641
301;19643
300;19645
300;19647
300;19649
299;19651
300;19653
300;19655
300;19657
299;19659
299;19661
299;19663
298;19665
297;19667
296;19670
295;19672
293;19674
291;19676
289;19678
287;19680
286;19682
285;19684
283;19686
283;19688
284;19690
286;19692
289;19694
293;19696
300;19698
309;19700
320;19702
334;19704
348;19706
364;19708
379;19710
386;19712
403;19714
418;19716
430;19718
441;19720
448;19722
451;19724
451;19726
447;19728
441;19730
434;19732
430;19734
421;19736
416;19738
409;19740
404;19742
399;19744
394;19746
389;19748
384;19750
379;19752
374;19755
368;19757
363;19759
358;19761
353;19763
348;19765
344;19767
340;19769
335;19771
331;19773
327;19775
324;19777
320;19779
317;19781
313;19783
310;19785
306;19787
304;19789
301;19791
299;19793
296;19795
294;19798
291;19800
291;19802
287;19804
286;19806
283;19808
282;19810
281;19812
279;19814
278;19816
276;19818
275;19820
274;19822
273;19824
272;19826
272;19828
271;19830
271;19832
270;19834
269;19836
270;19838
269;19840
269;19842
270;19844
269;19846
269;19848
268;19850
268;19852
268;19854
268;19856
269;19858
269;19860
269;19862
270;19864
270;19866
270;19868
270;19870
271;19872
271;19874
272;19876
273;19878
274;19880
274;19883
275;19885
275;19887
277;19889
278;19891
278;19893
279;19895
280;19897
281;19899
282;19901
283;19903
284;19905
286;19907
287;19909
288;19911
289;19913
291;19915
292;19917
293;19919
295;19921
297;19923
298;19926
299;19928
301;19930
302;19932
305;19934
306;19936
308;19938
310;19940
312;19942
313;19944
315;19946
317;19948
319;19950
320;19952
322;19954
324;19956
322;19958
327;19960
329;19962
330;19964
332;19966
333;19968
334;19970
335;19972
337;19974
338;19976
338;19978
338;19980
339;19982
339;19984
340;19986
339;19988
339;19990
337;19992
336;19994
336;19996
334;19998
333;20000
331;20002
329;20004
327;20006
324;20008
322;20011
319;20013
318;20015
315;20017
313;20019
308;20021
307;20023
306;20025
302;20027
301;20029
298;20031
296;20033
294;20035
292;20037
290;20039
287;20041
286;20043
284;20045
283;20047
281;20049
280;20051
278;20054
277;20056
276;20058
274;20060
274;20062
272;20064
272;20066
268;20068
269;20070
269;20072
268;20074
268;20076
264;20078
267;20080
266;20082
265;20084
266;20086
266;20088
265;20090
265;20092
265;20094
265;20096
265;20098
264;20100
264;20102
264;20104
264;20106
264;20108
265;20110
265;20112
264;20114
264;20116
265;20118
265;20120
265;20122
265;20124
265;20126
266;20128
264;20130
266;20132
266;20134
267;20136
266;20139
267;20141
268;20143
268;20145
269;20147
268;20149
268;20151
269;20153
269;20155
270;20157
270;20159
271;20161
271;20163
272;20165
271;20167
271;20169
272;20171
273;20173
273;20175
271;20177
274;20179
274;20182
274;20184
274;20186
276;20188
275;20190
275;20192
275;20194
276;20196
276;20198
277;20200
277;20202
277;20204
277;20206
277;20208
278;20210
277;20212
278;20214
279;20216
278;20218
279;20220
279;20222
279;20224
280;20226
279;20228
280;20230
280;20232
281;20234
281;20236
281;20238
279;20240
281;20242
282;20244
282;20246
282;20248
283;20250
283;20252
283;20254
283;20256
282;20258
283;20260
283;20262
283;20264
284;20267
285;20269
285;20271
285;20273
284;20275
285;20277
284;20279
286;20281
286;20283
286;20285
284;20287
286;20289
286;20291
286;20293
286;20295
291;20297
288;20299
288;20301
287;20303
288;20305
287;20307
288;20310
288;20312
288;20314
289;20316
289;20318
289;20320
289;20322
289;20324
289;20326
289;20328
290;20330
290;20332
290;20334
290;20336
290;20338
290;20340
290;20342
292;20344
291;20346
291;20348
290;20350
290;20352
291;20354
292;20356
292;20358
291;20360
292;20362
292;20364
293;20366
292;20368
292;20370
292;20372
293;20374
293;20376
293;20378
293;20380
293;20382
293;20384
293;20386
293;20388
293;20390
294;20392
294;20395
292;20397
294;20399
293;20401
293;20403
294;20405
298;20407
294;20409
294;20411
294;20413
294;20415
294;20417
294;20419
294;20421
295;20423
295;20425
295;20427
295;20429
294;20431
295;20433
295;20435
295;20438
295;20440
295;20442
295;20444
295;20446
295;20448
295;20450
295;20452
296;20454
296;20456
296;20458
295;20460
296;20462
296;20464
295;20466
296;20468
296;20470
296;20472
296;20474
295;20476
296;20478
296;20480
296;20482
296;20484
296;20486
296;20488
296;20490
296;20492
296;20494
296;20496
296;20498
296;20500
296;20502
296;20504
295;20506
296;20508
296;20510
296;20512
296;20514
299;20516
295;20518
296;20520
296;20523
296;20525
295;20527
296;20529
296;20531
297;20533
297;20535
296;20537
297;20539
296;20541
296;20543
296;20545
297;20547
297;20549
297;20551
297;20553
298;20555
298;20557
299;20559
300;20561
301;20563
300;20566
301;20568
301;20570
301;20572
300;20574
301;20576
300;20578
300;20580
300;20582
300;20584
299;20586
299;20588
298;20590
298;20592
298;20594
298;20596
297;20598
297;20600
296;20602
296;20604
295;20606
296;20608
295;20610
295;20612
295;20614
294;20616
295;20618
294;20620
294;20622
294;20624
297;20626
294;20628
293;20630
292;20632
291;20634
290;20636
288;20638
286;20640
284;20642
282;20644
280;20646
278;20648
277;20651
276;20653
277;20655
276;20657
279;20659
283;20661
288;20663
297;20665
306;20667
319;20669
333;20671
349;20673
364;20675
380;20677
395;20679
410;20681
424;20683
435;20685
443;20687
448;20689
450;20691
447;20694
442;20696
436;20698
430;20700
425;20702
419;20704
415;20706
411;20708
405;20710
399;20712
395;20714
388;20716
383;20718
377;20720
372;20722
366;20724
359;20726
354;20728
349;20730
343;20732
339;20734
338;20736
331;20738
327;20740
322;20742
317;20744
313;20746
310;20748
305;20750
303;20752
299;20754
296;20756
292;20758
290;20760
286;20762
284;20764
281;20766
279;20768
276;20770
274;20772
272;20774
270;20776
269;20779
267;20781
266;20783
264;20785
263;20787
261;20789
261;20791
259;20793
259;20795
258;20797
257;20799
256;20801
257;20803
255;20805
255;20807
255;20809
254;20811
254;20813
254;20815
254;20817
254;20819
254;20822
253;20824
254;20826
254;20828
255;20830
255;20832
255;20834
256;20836
256;20838
257;20840
256;20842
256;20844
258;20846
259;20848
257;20850
259;20852
261;20854
261;20856
262;20858
263;20860
264;20862
264;20864
265;20866
266;20868
267;20870
268;20872
269;20874
270;20876
272;20878
273;20880
274;20882
275;20884
277;20886
278;20888
279;20890
281;20892
283;20894
284;20896
286;20898
287;20900
289;20902
290;20904
292;20907
294;20909
296;20911
299;20913
299;20915
301;20917
303;20919
304;20921
306;20923
308;20925
309;20927
311;20929
312;20931
314;20933
315;20935
317;20937
318;20939
319;20941
320;20943
320;20945
321;20947
321;20950
321;20952
321;20954
321;20956
320;20958
317;20960
318;20962
317;20964
314;20966
313;20968
310;20970
309;20972
308;20974
305;20976
303;20978
300;20980
298;20982
295;20984
293;20986
291;20988
289;20990
287;20992
285;20994
283;20996
281;20998
278;21000
277;21002
275;21004
273;21006
271;21008
269;21010
267;21012
266;21014
265;21016
264;21018
262;21020
261;21022
260;21024
258;21026
257;21028
256;21030
256;21032
255;21035
254;21037
253;21039
252;21041
252;21043
251;21045
251;21047
251;21049
250;21051
250;21053
250;21055
249;21057
250;21059
249;21061
248;21063
249;21065
249;21067
248;21069
249;21071
249;21073
250;21075
250;21078
246;21080
250;21082
250;21084
250;21086
250;21088
250;21090
251;21092
251;21094
251;21096
251;21098
252;21100
252;21102
252;21104
252;21106
253;21108
253;21110
254;21112
254;21114
254;21116
255;21118
255;21120
255;21122
255;21124
256;21126
257;21128
257;21130
256;21132
257;21134
258;21136
259;21138
259;21140
260;21142
260;21144
260;21146
260;21148
261;21150
260;21152
262;21154
261;21156
262;21158
262;21160
263;21163
263;21165
263;21167
263;21169
264;21171
264;21173
264;21175
265;21177
263;21179
265;21181
265;21183
265;21185
266;21187
264;21189
267;21191
267;21193
267;21195
267;21197
268;21199
268;21201
268;21203
269;21206
269;21208
269;21210
270;21212
269;21214
270;21216
270;21218
270;21220
271;21222
271;21224
271;21226
271;21228
272;21230
272;21232
272;21234
275;21236
273;21238
273;21240
273;21242
273;21244
273;21246
274;21248
273;21250
274;21252
274;21254
275;21256
275;21258
275;21260
275;21262
275;21264
276;21266
276;21268
277;21270
277;21272
277;21274
277;21276
278;21278
277;21280
278;21282
279;21284
279;21286
276;21288
279;21291
279;21293
279;21295
279;21297
281;21299
280;21301
281;21303
281;21305
281;21307
280;21309
281;21311
281;21313
282;21315
282;21317
282;21319
282;21321
282;21323
283;21325
283;21327
283;21329
283;21331
284;21334
283;21336
284;21338
284;21340
284;21342
284;21344
287;21346
285;21348
285;21350
286;21352
285;21354
286;21356
285;21358
286;21360
286;21362
286;21364
286;21366
286;21368
287;21370
287;21372
288;21374
287;21376
288;21378
287;21380
288;21382
287;21384
288;21386
288;21388
288;21390
289;21392
289;21394
289;21396
288;21398
289;21400
288;21402
290;21404
289;21406
293;21408
290;21410
290;21412
291;21414
291;21416
291;21419
291;21421
291;21423
291;21425
291;21427
292;21429
292;21431
292;21433
292;21435
292;21437
292;21439
292;21441
292;21443
292;21445
293;21447
293;21449
292;21451
292;21453
294;21455
293;21457
294;21459
294;21462
294;21464
294;21466
293;21468
294;21470
294;21472
294;21474
294;21476
295;21478
295;21480
295;21482
295;21484
295;21486
295;21488
295;21490
295;21492
295;21494
295;21496
295;21498
294;21500
295;21502
296;21504
296;21506
294;21508
296;21510
297;21512
296;21514
298;21516
301;21518
297;21520
297;21522
298;21524
297;21526
297;21528
298;21530
298;21532
300;21534
300;21536
301;21538
301;21540
302;21542
302;21544
303;21547
303;21549
303;21551
304;21553
303;21555
303;21557
303;21559
303;21561
303;21563
304;21565
303;21567
303;21569
302;21571
302;21573
302;21575
302;21577
301;21579
302;21581
302;21583
302;21585
302;21587
301;21590
301;21592
301;21594
301;21596
301;21598
301;21600
301;21602
301;21604
300;21606
301;21608
299;21610
299;21612
298;21614
297;21616
295;21618
293;21620
291;21622
289;21624
288;21626
286;21628
284;21630
284;21632
284;21634
285;21636
286;21638
290;21640
295;21642
304;21644
315;21646
327;21648
341;21650
357;21652
372;21654
389;21656
406;21658
422;21660
436;21662
448;21664
456;21666
462;21668
464;21670
461;21672
458;21675
451;21677
446;21679
440;21681
435;21683
430;21685
426;21687
420;21689
416;21691
411;21693
405;21695
399;21697
393;21699
387;21701
380;21703
375;21705
370;21707
364;21709
359;21711
353;21713
349;21715
344;21718
339;21720
335;21722
331;21724
327;21726
323;21728
319;21730
316;21732
312;21734
310;21736
307;21738
304;21740
299;21742
298;21744
295;21746
293;21748
291;21750
290;21752
287;21754
286;21756
284;21758
283;21760
281;21762
280;21764
279;21766
278;21768
277;21770
276;21772
275;21774
274;21776
273;21778
273;21780
272;21782
272;21784
272;21786
271;21788
271;21790
271;21792
271;21794
271;21796
271;21798
271;21800
271;21803
271;21805
271;21807
272;21809
272;21811
273;21813
273;21815
274;21817
274;21819
275;21821
275;21823
276;21825
276;21827
277;21829
279;21831
279;21833
280;21835
281;21837
282;21839
282;21841
283;21843
285;21846
286;21848
287;21850
286;21852
290;21854
290;21856
292;21858
294;21860
295;21862
296;21864
298;21866
299;21868
301;21870
302;21872
304;21874
305;21876
308;21878
309;21880
311;21882
313;21884
314;21886
315;21888
318;21890
319;21892
321;21894
322;21896
324;21898
326;21900
328;21902
329;21904
331;21906
332;21908
334;21910
336;21912
339;21914
339;21916
340;21918
342;21920
343;21922
343;21924
344;21926
345;21928
345;21931
345;21933
344;21935
345;21937
343;21939
342;21941
341;21943
340;21945
338;21947
336;21949
334;21951
332;21953
330;21955
328;21957
326;21959
320;21961
321;21963
319;21965
316;21967
315;21969
313;21971
310;21974
308;21976
306;21978
303;21980
302;21982
300;21984
297;21986
296;21988
295;21990
293;21992
292;21994
290;21996
289;21998
287;22000
287;22002
285;22004
284;22006
282;22008
281;22010
281;22012
281;22014
280;22016
279;22018
279;22020
278;22022
279;22024
277;22026
276;22028
276;22030
276;22032
275;22034
276;22036
275;22038
275;22040
275;22042
275;22044
275;22046
275;22048
275;22050
275;22052
275;22054
275;22056
275;22059
275;22061
275;22063
276;22065
276;22067
276;22069
274;22071
276;22073
277;22075
278;22077
278;22079
276;22081
278;22083
278;22085
279;22087
279;22089
279;22091
279;22093
280;22095
281;22097
281;22099
281;22102
281;22104
281;22106
282;22108
282;22110
283;22112
284;22114
284;22116
282;22118
284;22120
285;22122
285;22124
285;22126
289;22128
286;22130
286;22132
286;22134
287;22136
286;22138
288;22140
288;22142
287;22144
288;22146
288;22148
289;22150
288;22152
289;22154
289;22156
290;22158
290;22160
290;22162
291;22164
291;22166
291;22168
291;22170
291;22172
292;22174
292;22176
292;22178
290;22180
293;22182
293;22184
294;22187
294;22189
291;22191
294;22193
294;22195
294;22197
294;22199
295;22201
295;22203
295;22205
296;22207
295;22209
296;22211
296;22213
296;22215
297;22217
297;22219
297;22221
297;22223
297;22225
296;22227
298;22230
298;22232
298;22234
298;22236
302;22238
299;22240
299;22242
299;22244
298;22246
299;22248
300;22250
299;22252
300;22254
300;22256
300;22258
300;22260
300;22262
300;22264
300;22266
301;22268
301;22270
301;22272
301;22274
302;22276
302;22278
302;22280
301;22282
302;22284
302;22286
303;22288
300;22290
303;22292
303;22294
303;22296
303;22298
301;22300
303;22302
304;22304
304;22306
304;22308
304;22310
303;22312
303;22315
304;22317
304;22319
305;22321
305;22323
305;22325
305;22327
305;22329
305;22331
305;22333
305;22335
304;22337
305;22339
305;22341
305;22343
305;22345
309;22347
306;22349
306;22351
305;22353
305;22355
306;22358
305;22360
307;22362
306;22364
306;22366
306;22368
306;22370
307;22372
306;22374
307;22376
307;22378
307;22380
307;22382
307;22384
307;22386
307;22388
307;22390
307;22392
307;22394
307;22396
307;22398
305;22400
308;22402
307;22404
307;22406
307;22408
308;22410
307;22412
307;22414
307;22416
307;22418
307;22420
307;22422
307;22424
308;22426
308;22428
308;22430
307;22432
307;22434
308;22436
307;22438
307;22440
308;22443
308;22445
307;22447
308;22449
308;22451
308;22453
307;22455
310;22457
308;22459
308;22461
307;22463
307;22465
307;22467
307;22469
307;22471
307;22473
307;22475
307;22477
307;22479
306;22481
307;22483
307;22486
307;22488
308;22490
308;22492
308;22494
308;22496
308;22498
308;22500
308;22502
308;22504
308;22506
308;22508
309;22510
309;22512
309;22514
310;22516
312;22518
312;22520
312;22522
313;22524
312;22526
312;22528
312;22530
312;22532
312;22534
312;22536
312;22538
311;22540
311;22542
310;22544
310;22546
310;22548
309;22550
310;22552
309;22554
308;22556
309;22558
308;22560
308;22562
307;22564
309;22566
307;22568
307;22571
307;22573
306;22575
306;22577
306;22579
306;22581
306;22583
306;22585
306;22587
305;22589
303;22591
302;22593
301;22595
299;22597
297;22599
295;22601
293;22603
291;22605
289;22607
288;22609
289;22611
289;22614
291;22616
295;22618
300;22620
309;22622
320;22624
332;22626
347;22628
362;22630
378;22632
395;22634
411;22636
427;22638
441;22640
452;22642
461;22644
466;22646
467;22648
464;22650
458;22652
451;22654
448;22656
441;22658
434;22660
430;22662
425;22664
419;22666
414;22668
409;22670
403;22672
397;22674
394;22676
387;22678
381;22680
375;22682
369;22684
364;22686
359;22688
354;22690
349;22692
344;22694
340;22696
336;22699
331;22701
327;22703
323;22705
320;22707
316;22709
313;22711
310;22713
306;22715
304;22717
301;22719
299;22721
296;22723
293;22725
291;22727
289;22729
287;22731
285;22733
283;22735
282;22737
280;22739
279;22742
278;22744
277;22746
275;22748
274;22750
273;22752
272;22754
272;22756
272;22758
270;22760
270;22762
269;22764
269;22766
270;22768
269;22770
269;22772
269;22774
269;22776
269;22778
269;22780
269;22782
269;22784
270;22786
270;22788
270;22790
270;22792
270;22794
271;22796
272;22798
272;22800
273;22802
273;22804
274;22806
275;22808
275;22810
276;22812
277;22814
278;22816
278;22818
279;22820
281;22822
281;22824
283;22827
283;22829
284;22831
286;22833
287;22835
288;22837
289;22839
290;22841
291;22843
293;22845
295;22847
296;22849
298;22851
299;22853
301;22855
303;22857
305;22859
306;22861
308;22863
310;22865
312;22867
313;22870
315;22872
317;22874
318;22876
320;22878
322;22880
324;22882
326;22884
327;22886
329;22888
330;22890
332;22892
333;22894
334;22896
336;22898
334;22900
337;22902
338;22904
337;22906
338;22908
336;22910
338;22912
337;22914
336;22916
335;22918
334;22920
332;22922
330;22924
329;22926
327;22928
325;22930
322;22932
320;22934
317;22936
314;22938
312;22940
310;22942
308;22944
305;22946
302;22948
300;22950
297;22952
296;22955
294;22957
292;22959
290;22961
286;22963
286;22965
283;22967
282;22969
280;22971
279;22973
278;22975
276;22977
275;22979
274;22981
272;22983
271;22985
270;22987
269;22989
269;22991
268;22993
267;22995
266;22998
265;23000
265;23002
264;23004
264;23006
264;23008
262;23010
263;23012
263;23014
262;23016
262;23018
261;23020
263;23022
262;23024
262;23026
262;23028
262;23030
262;23032
262;23034
263;23036
263;23038
263;23040
263;23042
264;23044
264;23046
264;23048
264;23050
264;23052
265;23054
265;23056
265;23058
266;23060
266;23062
266;23064
266;23066
267;23068
267;23070
266;23072
268;23074
269;23076
268;23078
269;23080
269;23083
270;23085
270;23087
271;23089
271;23091
271;23093
271;23095
272;23097
273;23099
273;23101
273;23103
273;23105
273;23107
274;23109
274;23111
275;23113
275;23115
275;23117
273;23119
276;23121
276;23123
276;23126
276;23128
279;23130
277;23132
278;23134
277;23136
278;23138
278;23140
278;23142
279;23144
279;23146
279;23148
280;23150
280;23152
279;23154
280;23156
281;23158
280;23160
281;23162
281;23164
281;23166
281;23168
282;23170
282;23172
282;23174
283;23176
283;23178
283;23180
280;23182
284;23184
283;23186
284;23188
284;23190
284;23192
285;23194
285;23196
285;23198
285;23200
285;23202
285;23204
286;23206
286;23208
286;23211
286;23213
287;23215
288;23217
288;23219
287;23221
287;23223
288;23225
288;23227
287;23229
288;23231
289;23233
289;23235
289;23237
293;23239
289;23241
290;23243
289;23245
290;23247
289;23249
290;23251
290;23254
291;23256
291;23258
291;23260
291;23262
291;23264
291;23266
291;23268
291;23270
292;23272
292;23274
292;23276
292;23278
292;23280
292;23282
292;23284
294;23286
293;23288
293;23290
293;23292
293;23294
293;23296
294;23298
294;23300
292;23302
294;23304
294;23306
294;23308
294;23310
294;23312
294;23314
294;23316
295;23318
295;23320
295;23322
295;23324
295;23326
295;23328
295;23330
294;23332
295;23334
295;23336
294;23339
296;23341
295;23343
295;23345
295;23347
299;23349
296;23351
296;23353
296;23355
296;23357
296;23359
296;23361
296;23363
297;23365
296;23367
296;23369
296;23371
296;23373
296;23375
296;23377
297;23379
296;23382
296;23384
296;23386
296;23388
296;23390
297;23392
297;23394
298;23396
298;23398
298;23400
297;23402
298;23404
298;23406
298;23408
298;23410
298;23412
299;23414
299;23416
299;23418
300;23420
301;23422
301;23424
302;23426
302;23428
303;23430
303;23432
303;23434
302;23436
303;23438
302;23440
303;23442
303;23444
302;23446
301;23448
302;23450
301;23452
301;23454
301;23456
304;23458
300;23460
300;23462
300;23464
299;23467
300;23469
300;23471
299;23473
299;23475
298;23477
298;23479
297;23481
298;23483
297;23485
297;23487
297;23489
297;23491
297;23493
297;23495
295;23497
294;23499
294;23501
292;23503
290;23505
288;23507
287;23510
285;23512
282;23514
281;23516
281;23518
280;23520
281;23522
283;23524
287;23526
291;23528
299;23530
309;23532
322;23534
336;23536
350;23538
366;23540
381;23542
397;23544
413;23546
426;23548
438;23550
442;23552
449;23554
452;23556
450;23558
447;23560
440;23562
433;23564
426;23566
424;23568
416;23570
411;23572
406;23574
400;23576
395;23578
391;23580
386;23582
381;23584
376;23586
370;23588
365;23590
359;23592
354;23595
349;23597
344;23599
339;23601
335;23603
331;23605
326;23607
322;23609
318;23611
315;23613
312;23615
308;23617
305;23619
302;23621
299;23623
296;23625
294;23627
290;23629
288;23631
286;23633
285;23635
282;23638
280;23640
278;23642
276;23644
276;23646
274;23648
272;23650
271;23652
270;23654
269;23656
268;23658
267;23660
266;23662
266;23664
265;23666
265;23668
264;23670
264;23672
264;23674
264;23676
264;23678
263;23680
263;23682
263;23684
263;23686
263;23688
264;23690
264;23692
264;23694
264;23696
265;23698
265;23700
266;23702
265;23704
266;23706
267;23708
267;23710
268;23712
269;23714
269;23716
270;23718
271;23720
271;23723
273;23725
274;23727
275;23729
276;23731
276;23733
277;23735
279;23737
280;23739
281;23741
283;23743
285;23745
285;23747
286;23749
287;23751
288;23753
290;23755
292;23757
294;23759
296;23761
297;23763
298;23766
300;23768
302;23770
304;23772
305;23774
307;23776
309;23778
311;23780
313;23782
314;23784
315;23786
317;23788
319;23790
317;23792
322;23794
323;23796
325;23798
326;23800
328;23802
329;23804
330;23806
331;23808
331;23810
332;23812
332;23814
332;23816
332;23818
332;23820
331;23822
330;23824
328;23826
327;23828
326;23830
324;23832
322;23834
320;23836
318;23838
315;23840
314;23842
311;23844
309;23846
306;23848
304;23851
302;23853
299;23855
297;23857
295;23859
292;23861
290;23863
288;23865
286;23867
285;23869
282;23871
280;23873
279;23875
277;23877
276;23879
274;23881
273;23883
272;23885
271;23887
270;23889
268;23891
267;23894
266;23896
265;23898
265;23900
261;23902
263;23904
263;23906
262;23908
261;23910
258;23912
261;23914
261;23916
260;23918
260;23920
260;23922
260;23924
260;23926
259;23928
259;23930
259;23932
259;23934
259;23936
259;23938
260;23940
259;23942
260;23944
260;23946
260;23948
260;23950
261;23952
261;23954
261;23956
261;23958
262;23960
262;23962
261;23964
262;23966
263;23968
263;23970
263;23972
264;23974
265;23976
265;23979
266;23981
265;23983
265;23985
266;23987
266;23989
267;23991
268;23993
268;23995
268;23997
268;23999
269;24001
269;24003
270;24005
270;24007
270;24009
269;24011
271;24013
271;24015
271;24017
272;24019
271;24022
273;24024
273;24026
273;24028
274;24030
273;24032
273;24034
274;24036
274;24038
275;24040
275;24042
276;24044
275;24046
276;24048
276;24050
276;24052
276;24054
277;24056
277;24058
277;24060
278;24062
278;24064
277;24066
278;24068
278;24070
279;24072
276;24074
279;24076
279;24078
279;24080
279;24082
280;24084
280;24086
280;24088
281;24090
280;24092
281;24094
281;24096
281;24098
282;24100
282;24102
282;24104
282;24107
282;24109
282;24111
283;24113
282;24115
284;24117
284;24119
282;24121
283;24123
284;24125
284;24127
284;24129
287;24131
285;24133
285;24135
285;24137
286;24139
286;24141
285;24143
285;24145
286;24147
286;24150
286;24152
286;24154
286;24156
287;24158
287;24160
287;24162
287;24164
288;24166
288;24168
287;24170
288;24172
288;24174
288;24176
290;24178
289;24180
289;24182
290;24184
288;24186
289;24188
289;24190
289;24192
289;24194
290;24196
290;24198
290;24200
290;24202
291;24204
290;24206
290;24208
291;24210
291;24212
291;24214
292;24216
291;24218
292;24220
292;24222
292;24224
292;24226
292;24228
290;24230
293;24232
292;24235
292;24237
293;24239
297;24241
293;24243
293;24245
292;24247
293;24249
293;24251
294;24253
293;24255
294;24257
294;24259
294;24261
294;24263
294;24265
294;24267
294;24269
294;24271
294;24273
295;24275
295;24278
294;24280
295;24282
294;24284
295;24286
296;24288
295;24290
295;24292
295;24294
295;24296
295;24298
296;24300
295;24302
296;24304
296;24306
296;24308
296;24310
295;24312
295;24314
296;24316
295;24318
296;24320
296;24322
296;24324
296;24326
296;24328
296;24330
296;24332
297;24334
296;24336
296;24338
295;24340
296;24342
296;24344
296;24346
296;24348
300;24350
297;24352
297;24354
296;24356
296;24358
297;24360
297;24363
297;24365
297;24367
297;24369
297;24371
296;24373
297;24375
297;24377
297;24379
297;24381
297;24383
297;24385
297;24387
297;24389
297;24391
297;24393
297;24395
298;24397
298;24399
298;24401
297;24403
297;24406
297;24408
298;24410
297;24412
297;24414
297;24416
296;24418
296;24420
297;24422
297;24424
297;24426
297;24428
297;24430
298;24432
297;24434
297;24436
297;24438
297;24440
297;24442
298;24444
298;24446
298;24448
297;24450
298;24452
299;24454
299;24456
300;24458
304;24460
301;24462
302;24464
302;24466
302;24468
303;24470
302;24472
303;24474
303;24476
303;24478
302;24480
303;24482
302;24484
302;24486
301;24488
301;24491
301;24493
301;24495
300;24497
300;24499
300;24501
299;24503
299;24505
299;24507
299;24509
299;24511
298;24513
298;24515
298;24517
298;24519
298;24521
297;24523
297;24525
298;24527
296;24529
296;24531
295;24534
294;24536
291;24538
290;24540
288;24542
285;24544
283;24546
282;24548
280;24550
279;24552
279;24554
280;24556
282;24558
286;24560
292;24562
299;24564
310;24566
323;24568
339;24570
354;24572
367;24574
378;24576
395;24578
412;24580
427;24582
440;24584
451;24586
458;24588
461;24590
460;24592
455;24594
450;24596
443;24598
438;24600
433;24602
429;24604
424;24606
419;24608
413;24610
408;24612
402;24614
397;24616
391;24619
385;24621
378;24623
372;24625
366;24627
360;24629
354;24631
350;24633
345;24635
341;24637
335;24639
330;24641
327;24643
321;24645
317;24647
313;24649
310;24651
306;24653
302;24655
299;24657
296;24659
294;24662
290;24664
288;24666
286;24668
283;24670
281;24672
278;24674
277;24676
275;24678
273;24680
272;24682
268;24684
269;24686
267;24688
267;24690
265;24692
265;24694
264;24696
263;24698
262;24700
262;24702
261;24704
261;24706
260;24708
260;24710
260;24712
260;24714
260;24716
259;24718
259;24720
259;24722
259;24724
260;24726
260;24728
261;24730
261;24732
262;24734
261;24736
262;24738
262;24740
263;24742
264;24744
267;24747
265;24749
266;24751
266;24753
267;24755
268;24757
270;24759
270;24761
271;24763
273;24765
274;24767
274;24769
275;24771
277;24773
278;24775
279;24777
280;24779
281;24781
283;24783
284;24785
286;24787
287;24790
289;24792
288;24794
292;24796
293;24798
295;24800
297;24802
297;24804
300;24806
302;24808
304;24810
305;24812
307;24814
309;24816
310;24818
312;24820
314;24822
316;24824
317;24826
319;24828
321;24830
322;24832
323;24834
325;24836
327;24838
328;24840
328;24842
330;24844
331;24846
331;24848
331;24850
332;24852
333;24854
332;24856
331;24858
