mV;time
287;2
287;4
285;6
284;8
285;10
285;12
286;14
287;16
288;18
288;20
289;22
287;24
286;26
286;28
286;30
287;32
288;34
289;36
289;38
290;40
289;43
289;45
287;47
287;49
288;51
289;53
290;55
291;57
291;59
291;61
291;63
290;65
289;67
289;69
290;71
291;73
292;75
293;77
293;79
293;81
292;83
291;86
290;88
290;90
291;92
292;94
293;96
293;98
294;100
294;102
293;104
291;106
290;108
291;110
292;112
293;114
294;116
295;118
295;120
295;122
294;124
293;126
293;128
292;130
293;132
294;134
295;136
295;138
296;140
296;142
295;144
294;146
293;148
293;150
295;152
295;154
295;156
296;158
296;160
296;162
295;164
294;166
293;168
293;171
294;173
295;175
296;177
296;179
297;181
296;183
295;185
294;187
293;189
294;191
295;193
296;195
297;197
297;199
297;201
297;203
296;205
295;207
295;209
296;211
297;214
298;216
299;218
300;220
300;222
299;224
298;226
297;228
297;230
298;232
299;234
300;236
300;238
301;240
300;242
299;244
297;246
296;248
296;250
297;252
297;254
297;256
297;258
297;260
297;262
296;264
294;266
293;268
293;270
293;272
294;274
295;276
295;278
295;280
295;282
293;284
292;286
291;288
291;290
292;292
292;294
293;296
293;299
294;301
293;303
291;305
290;307
290;309
290;311
290;313
291;315
292;317
292;319
292;321
290;323
288;325
285;327
283;329
282;331
281;333
280;335
281;337
281;339
282;342
284;344
287;346
291;348
298;350
306;352
314;354
322;356
330;358
336;360
341;362
343;364
343;366
342;368
339;370
338;372
336;374
334;376
331;378
328;380
325;382
324;384
320;386
317;388
315;390
314;392
314;394
313;396
312;398
311;400
309;402
307;404
304;406
302;408
301;410
300;412
300;414
299;416
299;418
298;420
297;422
295;424
293;427
291;429
290;431
291;433
291;435
291;437
291;439
291;441
290;443
288;445
287;447
286;449
286;451
287;453
287;455
287;457
288;459
288;461
287;463
285;465
284;467
283;470
284;472
285;474
285;476
286;478
287;480
287;482
286;484
285;486
284;488
284;490
285;492
285;494
286;496
287;498
287;500
287;502
286;504
285;506
284;508
284;510
285;512
286;514
287;516
288;518
288;520
289;522
288;524
287;526
286;528
286;530
287;532
288;534
289;536
290;538
291;540
291;542
290;544
289;546
288;548
289;550
290;552
291;555
292;557
293;559
294;561
294;563
293;565
292;567
291;569
292;571
294;573
295;575
296;577
297;579
297;581
298;583
297;585
296;587
296;589
297;591
298;593
300;595
301;598
302;600
302;602
302;604
301;606
300;608
300;610
301;612
303;614
303;616
304;618
305;620
305;622
304;624
303;626
302;628
302;630
303;632
304;634
304;636
305;638
304;640
304;642
303;644
302;646
300;648
299;650
299;652
300;654
300;656
300;658
300;660
299;662
298;664
296;666
294;668
294;670
294;672
294;674
295;676
295;678
294;680
294;683
292;685
291;687
289;689
289;691
289;693
290;695
290;697
290;699
290;701
290;703
288;705
287;707
286;709
286;711
286;713
287;715
288;717
288;719
288;721
287;723
286;726
285;728
284;730
284;732
285;734
286;736
287;738
287;740
287;742
286;744
285;746
285;748
284;750
285;752
286;754
287;756
287;758
288;760
288;762
287;764
286;766
285;768
285;770
285;772
286;774
287;776
288;778
289;780
289;782
289;784
287;786
286;788
286;790
287;792
288;794
288;796
290;798
290;800
290;802
289;804
288;806
287;808
288;811
289;813
290;815
291;817
291;819
291;821
292;823
291;825
289;827
288;829
289;831
289;833
290;835
291;837
292;839
292;841
292;843
291;845
290;847
289;849
289;851
291;854
291;856
292;858
292;860
293;862
292;864
289;866
286;868
284;870
284;872
286;874
287;876
288;878
290;880
290;882
288;884
287;886
284;888
284;890
284;892
286;894
287;896
288;898
290;900
291;902
290;904
288;906
286;908
285;910
286;912
288;914
290;916
291;918
293;920
294;922
293;924
292;926
289;928
288;930
289;932
291;934
293;936
295;939
296;941
298;943
297;945
295;947
294;949
293;951
295;953
297;955
299;957
301;959
302;961
302;963
300;965
298;967
296;969
296;971
297;973
298;975
300;977
301;979
301;982
301;984
299;986
297;988
294;990
294;992
296;994
297;996
298;998
299;1000
300;1002
299;1004
297;1006
294;1008
293;1010
293;1012
295;1014
296;1016
298;1018
299;1020
299;1022
299;1024
297;1026
295;1028
292;1030
292;1032
294;1034
295;1036
297;1038
298;1040
299;1042
298;1044
296;1046
294;1048
293;1050
292;1052
292;1054
293;1056
293;1058
292;1060
292;1062
289;1064
286;1067
283;1069
282;1071
284;1073
289;1075
294;1077
302;1079
309;1081
317;1083
323;1085
329;1087
335;1089
341;1091
347;1093
353;1095
355;1097
356;1099
354;1101
352;1103
348;1105
343;1107
338;1110
335;1112
334;1114
333;1116
332;1118
332;1120
331;1122
329;1124
325;1126
321;1128
318;1130
317;1132
316;1134
316;1136
316;1138
315;1140
314;1142
312;1144
309;1146
305;1148
303;1150
302;1152
302;1154
302;1156
303;1158
303;1160
303;1162
301;1164
299;1166
296;1168
293;1170
292;1172
293;1174
294;1176
295;1178
296;1180
296;1182
294;1184
292;1186
289;1188
288;1190
288;1192
289;1195
290;1197
291;1199
292;1201
292;1203
291;1205
289;1207
287;1209
285;1211
286;1213
287;1215
288;1217
290;1219
291;1221
291;1223
290;1225
288;1227
286;1229
285;1231
286;1233
288;1235
290;1238
291;1240
291;1242
292;1244
290;1246
288;1248
286;1250
286;1252
288;1254
289;1256
291;1258
292;1260
293;1262
293;1264
291;1266
289;1268
288;1270
288;1272
290;1274
292;1276
293;1278
294;1280
295;1282
295;1284
294;1286
292;1288
290;1290
290;1292
292;1294
293;1296
295;1298
297;1300
298;1302
298;1304
296;1306
294;1308
293;1310
293;1312
295;1314
297;1316
298;1318
300;1320
301;1323
301;1325
299;1327
297;1329
296;1331
297;1333
299;1335
300;1337
302;1339
304;1341
304;1343
303;1345
301;1347
299;1349
299;1351
300;1353
301;1355
303;1357
305;1359
305;1361
305;1363
304;1366
301;1368
299;1370
298;1372
299;1374
300;1376
301;1378
302;1380
303;1382
302;1384
300;1386
297;1388
295;1390
294;1392
295;1394
297;1396
297;1398
298;1400
298;1402
297;1404
295;1406
294;1408
292;1410
290;1412
291;1414
292;1416
294;1418
294;1420
295;1422
294;1424
292;1426
289;1428
287;1430
287;1432
288;1434
289;1436
290;1438
291;1440
292;1442
291;1444
289;1446
287;1448
285;1451
285;1453
286;1455
288;1457
289;1459
290;1461
291;1463
290;1465
288;1467
286;1469
284;1471
285;1473
286;1475
288;1477
289;1479
290;1481
291;1483
290;1485
287;1487
285;1489
285;1491
285;1494
287;1496
289;1498
290;1500
291;1502
292;1504
290;1506
288;1508
286;1510
286;1512
287;1514
289;1516
291;1518
292;1520
293;1522
293;1524
291;1526
289;1528
287;1530
287;1532
289;1534
289;1536
291;1538
293;1540
293;1542
294;1544
293;1546
290;1548
288;1550
288;1552
289;1554
291;1556
292;1558
294;1560
295;1562
295;1564
293;1566
290;1568
289;1570
288;1572
290;1574
292;1576
293;1579
294;1581
295;1583
295;1585
293;1587
290;1589
289;1591
289;1593
291;1595
292;1597
294;1599
295;1601
296;1603
295;1605
293;1607
290;1609
289;1611
290;1613
291;1615
293;1617
295;1619
296;1622
296;1624
295;1626
292;1628
290;1630
290;1632
291;1634
292;1636
294;1638
295;1640
296;1642
296;1644
295;1646
292;1648
290;1650
290;1652
291;1654
293;1656
295;1658
296;1660
297;1662
297;1664
296;1666
293;1668
291;1670
291;1672
292;1674
293;1676
294;1678
296;1680
297;1682
297;1684
296;1686
293;1688
291;1690
291;1692
292;1694
294;1696
295;1698
297;1700
298;1702
297;1704
296;1707
293;1709
292;1711
292;1713
294;1715
295;1717
297;1719
298;1721
299;1723
299;1725
297;1727
295;1729
294;1731
295;1733
296;1735
298;1737
300;1739
302;1741
302;1743
301;1745
299;1747
297;1750
295;1752
297;1754
298;1756
300;1758
301;1760
302;1762
301;1764
299;1766
297;1768
294;1770
293;1772
294;1774
295;1776
297;1778
298;1780
298;1782
298;1784
296;1786
293;1788
291;1790
291;1792
291;1794
293;1796
294;1798
295;1800
296;1802
297;1804
295;1806
293;1808
290;1810
289;1812
291;1814
292;1816
293;1818
295;1820
296;1822
296;1824
294;1826
292;1828
289;1830
289;1832
291;1835
292;1837
293;1839
294;1841
293;1843
292;1845
288;1847
284;1849
281;1851
280;1853
280;1855
281;1857
283;1859
287;1861
291;1863
295;1865
300;1867
305;1869
312;1871
321;1873
332;1875
341;1878
351;1880
357;1882
362;1884
362;1886
360;1888
356;1890
352;1892
350;1894
348;1896
347;1898
345;1900
344;1902
342;1904
339;1906
334;1908
330;1910
327;1912
327;1914
326;1916
325;1918
324;1920
323;1922
322;1924
319;1926
314;1928
310;1930
308;1932
306;1934
306;1936
306;1938
306;1940
306;1942
305;1944
302;1946
298;1948
295;1950
293;1952
293;1954
294;1956
294;1958
294;1960
295;1963
294;1965
291;1967
288;1969
285;1971
285;1973
286;1975
287;1977
288;1979
288;1981
289;1983
288;1985
286;1987
283;1989
281;1991
281;1993
282;1995
284;1997
285;1999
286;2001
287;2003
286;2006
283;2008
281;2010
280;2012
281;2014
282;2016
283;2018
285;2020
286;2022
287;2024
285;2026
283;2028
281;2030
280;2032
281;2034
283;2036
285;2038
286;2040
287;2042
288;2044
286;2046
285;2048
283;2050
281;2052
282;2054
284;2056
286;2058
288;2060
289;2062
290;2064
289;2066
287;2068
285;2070
284;2072
285;2074
287;2076
289;2078
291;2080
292;2082
293;2084
291;2086
289;2088
288;2091
287;2093
289;2095
291;2097
293;2099
295;2101
296;2103
296;2105
294;2107
293;2109
291;2111
291;2113
293;2115
295;2117
297;2119
299;2121
300;2123
300;2125
298;2127
296;2129
295;2131
295;2134
297;2136
299;2138
301;2140
303;2142
303;2144
302;2146
300;2148
298;2150
297;2152
297;2154
299;2156
301;2158
302;2160
303;2162
303;2164
302;2166
299;2168
297;2170
296;2172
297;2174
297;2176
299;2178
300;2180
301;2182
301;2184
300;2186
297;2188
295;2190
293;2192
294;2194
295;2196
296;2198
297;2200
298;2202
298;2204
297;2206
294;2208
291;2210
290;2212
291;2214
292;2216
294;2219
295;2221
295;2223
295;2225
294;2227
291;2229
289;2231
288;2233
289;2235
291;2237
292;2239
293;2241
294;2243
294;2245
292;2247
289;2249
287;2251
287;2253
289;2255
290;2257
292;2259
293;2262
294;2264
293;2266
291;2268
289;2270
287;2272
288;2274
289;2276
291;2278
293;2280
294;2282
294;2284
293;2286
291;2288
289;2290
288;2292
289;2294
291;2296
292;2298
294;2300
295;2302
296;2304
295;2306
293;2308
291;2310
289;2312
290;2314
292;2316
294;2318
295;2320
296;2322
297;2324
296;2326
294;2328
292;2330
291;2332
292;2334
293;2336
295;2338
297;2340
298;2342
298;2344
297;2347
294;2349
292;2351
291;2353
293;2355
294;2357
296;2359
298;2361
298;2363
299;2365
297;2367
294;2369
292;2371
292;2373
293;2375
295;2377
297;2379
298;2381
299;2383
298;2385
296;2387
294;2390
292;2392
292;2394
294;2396
295;2398
297;2400
298;2402
299;2404
298;2406
296;2408
293;2410
292;2412
292;2414
294;2416
296;2418
297;2420
298;2422
298;2424
297;2426
295;2428
293;2430
292;2432
292;2434
294;2436
295;2438
297;2440
298;2442
298;2444
298;2446
296;2448
293;2450
292;2452
292;2454
294;2456
296;2458
297;2460
298;2462
299;2464
298;2466
295;2468
293;2470
292;2472
293;2475
294;2477
296;2479
298;2481
298;2483
299;2485
297;2487
294;2489
292;2491
292;2493
293;2495
295;2497
296;2499
298;2501
299;2503
299;2505
297;2507
294;2509
292;2511
292;2513
294;2515
296;2518
297;2520
299;2522
299;2524
300;2526
297;2528
295;2530
294;2532
294;2534
295;2536
297;2538
299;2540
300;2542
301;2544
300;2546
298;2548
296;2550
295;2552
296;2554
298;2556
300;2558
301;2560
303;2562
304;2564
304;2566
302;2568
300;2570
298;2572
298;2574
299;2576
300;2578
302;2580
303;2582
303;2584
302;2586
300;2588
297;2590
295;2592
295;2594
297;2596
298;2598
300;2600
300;2603
301;2605
299;2607
296;2609
294;2611
292;2613
293;2615
295;2617
296;2619
297;2621
298;2623
298;2625
296;2627
294;2629
292;2631
291;2633
292;2635
293;2637
295;2639
296;2641
297;2643
297;2646
295;2648
292;2650
290;2652
290;2654
292;2656
293;2658
294;2660
296;2662
296;2664
296;2666
293;2668
290;2670
287;2672
286;2674
286;2676
286;2678
285;2680
285;2682
285;2684
283;2686
283;2688
282;2690
284;2692
289;2694
297;2696
306;2698
316;2700
327;2702
337;2704
346;2706
353;2708
358;2710
362;2712
365;2714
367;2716
367;2718
366;2720
364;2722
361;2724
358;2726
353;2728
348;2731
345;2733
344;2735
343;2737
342;2739
341;2741
339;2743
336;2745
332;2747
328;2749
323;2751
320;2753
318;2755
318;2757
317;2759
316;2761
315;2763
313;2765
310;2767
305;2769
301;2771
300;2774
299;2776
299;2778
300;2780
299;2782
299;2784
298;2786
294;2788
290;2790
288;2792
287;2794
287;2796
288;2798
289;2800
290;2802
290;2804
288;2806
285;2808
283;2810
281;2812
281;2814
281;2816
283;2818
284;2820
285;2822
285;2824
285;2826
283;2828
280;2830
278;2832
278;2834
279;2836
281;2838
282;2840
283;2842
284;2844
283;2846
281;2848
279;2850
277;2852
278;2854
279;2856
281;2859
283;2861
284;2863
285;2865
283;2867
281;2869
279;2871
278;2873
279;2875
280;2877
282;2879
284;2881
285;2883
286;2885
284;2887
282;2889
280;2891
280;2893
281;2895
283;2897
285;2899
286;2902
288;2904
288;2906
287;2908
284;2910
283;2912
283;2914
285;2916
286;2918
288;2920
290;2922
291;2924
291;2926
290;2928
288;2930
286;2932
287;2934
289;2936
291;2938
293;2940
294;2942
295;2944
296;2946
295;2948
292;2950
291;2952
291;2954
293;2956
295;2958
296;2960
298;2962
299;2964
300;2966
298;2968
296;2970
294;2972
294;2974
296;2976
298;2978
299;2980
300;2982
301;2984
300;2987
298;2989
295;2991
294;2993
294;2995
296;2997
297;2999
298;3001
299;3003
299;3005
298;3007
295;3009
292;3011
291;3013
292;3015
293;3017
294;3019
295;3021
296;3023
296;3025
294;3027
291;3030
289;3032
288;3034
288;3036
290;3038
291;3040
292;3042
293;3044
292;3046
290;3048
288;3050
285;3052
285;3054
286;3056
287;3058
289;3060
290;3062
291;3064
290;3066
288;3068
285;3070
284;3072
283;3074
284;3076
286;3078
288;3080
289;3082
290;3084
290;3086
288;3088
286;3090
284;3092
284;3094
285;3096
287;3098
288;3100
290;3102
290;3104
290;3106
288;3108
286;3110
284;3112
284;3115
286;3117
288;3119
289;3121
291;3123
292;3125
291;3127
289;3129
287;3131
286;3133
287;3135
288;3137
291;3139
292;3141
293;3143
294;3145
293;3147
291;3149
289;3151
288;3153
289;3155
291;3158
293;3160
294;3162
295;3164
296;3166
294;3168
292;3170
290;3172
289;3174
291;3176
293;3178
295;3180
296;3182
297;3184
297;3186
295;3188
293;3190
291;3192
291;3194
292;3196
294;3198
295;3200
296;3202
297;3204
298;3206
296;3208
294;3210
292;3212
291;3214
293;3216
294;3218
295;3220
297;3222
298;3224
298;3226
296;3228
293;3230
291;3232
291;3234
292;3236
294;3238
296;3240
297;3243
298;3245
298;3247
295;3249
293;3251
291;3253
291;3255
293;3257
295;3259
296;3261
298;3263
298;3265
297;3267
295;3269
293;3271
292;3273
292;3275
294;3277
295;3279
297;3281
298;3283
298;3286
297;3288
295;3290
292;3292
292;3294
293;3296
294;3298
296;3300
297;3302
298;3304
298;3306
297;3308
294;3310
292;3312
292;3314
293;3316
295;3318
296;3320
298;3322
298;3324
298;3326
297;3328
295;3330
293;3332
292;3334
293;3336
295;3338
296;3340
297;3342
298;3344
299;3346
297;3348
294;3350
293;3352
292;3354
293;3356
295;3358
296;3360
298;3362
299;3364
299;3366
297;3368
295;3371
293;3373
293;3375
295;3377
296;3379
298;3381
300;3383
301;3385
300;3387
298;3389
295;3391
294;3393
295;3395
296;3397
299;3399
300;3401
302;3403
303;3405
302;3407
300;3409
298;3411
297;3414
299;3416
300;3418
302;3420
303;3422
304;3424
304;3426
303;3428
301;3430
297;3432
297;3434
298;3436
298;3438
300;3440
301;3442
301;3444
301;3446
299;3448
296;3450
294;3452
293;3454
293;3456
295;3458
296;3460
297;3462
298;3464
298;3466
297;3468
294;3470
292;3472
291;3474
292;3476
293;3478
295;3480
296;3482
296;3484
296;3486
295;3488
292;3490
290;3492
289;3494
290;3496
292;3499
293;3501
294;3503
296;3505
295;3507
293;3509
291;3511
288;3513
289;3515
290;3517
291;3519
292;3521
292;3523
291;3525
289;3527
285;3529
280;3531
277;3533
276;3535
277;3537
280;3539
283;3542
288;3544
293;3546
299;3548
305;3550
312;3552
320;3554
331;3556
342;3558
352;3560
361;3562
367;3564
370;3566
369;3568
365;3570
360;3572
357;3574
356;3576
354;3578
353;3580
352;3582
351;3584
349;3586
346;3588
341;3590
337;3592
333;3594
331;3596
330;3598
328;3600
327;3602
326;3604
324;3606
320;3608
315;3610
311;3612
308;3614
307;3616
307;3618
307;3620
306;3622
306;3624
304;3627
301;3629
297;3631
294;3633
292;3635
292;3637
292;3639
292;3641
293;3643
293;3645
291;3647
288;3649
285;3651
282;3653
282;3655
283;3657
283;3659
284;3661
285;3663
285;3665
284;3667
281;3670
279;3672
277;3674
278;3676
279;3678
280;3680
281;3682
282;3684
283;3686
281;3688
279;3690
276;3692
276;3694
276;3696
278;3698
279;3700
281;3702
282;3704
282;3706
281;3708
278;3710
277;3712
276;3714
277;3716
278;3718
280;3720
282;3722
283;3724
283;3726
283;3728
280;3730
278;3732
277;3734
278;3736
280;3738
282;3740
283;3742
285;3744
286;3746
284;3748
282;3750
280;3752
280;3755
281;3757
283;3759
285;3761
286;3763
287;3765
288;3767
286;3769
284;3771
283;3773
283;3775
284;3777
287;3779
288;3781
290;3783
291;3785
291;3787
289;3789
287;3791
286;3793
287;3795
289;3798
291;3800
293;3802
294;3804
295;3806
294;3808
292;3810
290;3812
289;3814
291;3816
292;3818
295;3820
296;3822
297;3824
298;3826
296;3828
294;3830
292;3832
291;3834
292;3836
294;3838
294;3840
296;3842
297;3844
297;3846
296;3848
294;3850
291;3852
290;3854
290;3856
291;3858
293;3860
293;3862
294;3864
294;3866
293;3868
290;3870
288;3872
286;3874
287;3876
288;3878
289;3880
291;3883
291;3885
291;3887
289;3889
286;3891
284;3893
283;3895
284;3897
285;3899
286;3901
288;3903
288;3905
288;3907
286;3909
283;3911
281;3913
281;3915
282;3917
284;3919
285;3921
286;3923
286;3926
286;3928
284;3930
281;3932
280;3934
280;3936
282;3938
283;3940
285;3942
286;3944
287;3946
285;3948
283;3950
281;3952
280;3954
281;3956
282;3958
284;3960
286;3962
287;3964
288;3966
287;3968
285;3970
283;3972
281;3974
282;3976
284;3978
285;3980
287;3982
289;3984
289;3986
289;3988
287;3990
285;3992
283;3994
284;3996
286;3998
288;4000
289;4002
291;4004
291;4006
290;4008
288;4011
286;4013
285;4015
287;4017
288;4019
290;4021
291;4023
292;4025
293;4027
291;4029
289;4031
286;4033
286;4035
288;4037
289;4039
291;4041
292;4043
293;4045
293;4047
291;4049
289;4051
287;4054
287;4056
288;4058
290;4060
291;4062
293;4064
293;4066
293;4068
290;4070
288;4072
287;4074
287;4076
289;4078
291;4080
292;4082
293;4084
294;4086
293;4088
290;4090
288;4092
287;4094
287;4096
289;4098
290;4100
292;4102
293;4104
294;4106
293;4108
291;4110
289;4112
288;4114
288;4116
290;4118
291;4120
293;4122
294;4124
294;4126
293;4128
291;4130
289;4132
288;4134
288;4136
290;4139
291;4141
293;4143
294;4145
294;4147
293;4149
290;4151
288;4153
287;4155
288;4157
290;4159
291;4161
293;4163
294;4165
294;4167
292;4169
290;4171
288;4173
288;4175
289;4177
290;4179
292;4182
293;4184
294;4186
294;4188
292;4190
289;4192
288;4194
288;4196
289;4198
291;4200
292;4202
294;4204
294;4206
294;4208
292;4210
289;4212
288;4214
288;4216
290;4218
292;4220
294;4222
294;4224
295;4226
295;4228
293;4230
291;4232
289;4234
290;4236
291;4238
293;4240
295;4242
297;4244
298;4246
298;4248
296;4250
294;4252
293;4254
294;4256
296;4258
297;4260
299;4262
300;4264
300;4267
299;4269
297;4271
294;4273
293;4275
293;4277
295;4279
296;4281
297;4283
298;4285
298;4287
296;4289
293;4291
291;4293
290;4295
291;4297
293;4299
294;4301
295;4303
296;4305
296;4307
294;4310
291;4312
289;4314
289;4316
290;4318
292;4320
293;4322
294;4324
295;4326
295;4328
292;4330
290;4332
288;4334
289;4336
290;4338
292;4340
293;4342
295;4344
295;4346
294;4348
292;4350
291;4352
289;4354
288;4356
289;4358
290;4360
290;4362
290;4364
289;4366
287;4368
284;4370
280;4372
277;4374
277;4376
280;4378
284;4380
290;4382
296;4384
304;4386
310;4388
316;4390
323;4392
330;4395
338;4397
345;4399
351;4401
355;4403
356;4405
355;4407
351;4409
346;4411
341;4413
337;4415
335;4417
334;4419
334;4421
333;4423
332;4425
331;4427
327;4429
323;4431
320;4433
317;4435
317;4438
317;4440
316;4442
316;4444
315;4446
314;4448
310;4450
307;4452
303;4454
302;4456
302;4458
303;4460
303;4462
303;4464
303;4466
301;4468
298;4470
295;4472
293;4474
292;4476
293;4478
293;4480
294;4482
295;4484
295;4486
295;4488
292;4490
289;4492
287;4494
286;4496
287;4498
288;4500
289;4502
290;4504
290;4506
289;4508
287;4510
284;4512
283;4514
283;4516
284;4518
285;4520
287;4523
288;4525
289;4527
288;4529
286;4531
283;4533
282;4535
282;4537
284;4539
286;4541
287;4543
289;4545
289;4547
288;4549
286;4551
283;4553
283;4555
284;4557
285;4559
287;4561
289;4563
290;4566
290;4568
288;4570
286;4572
284;4574
284;4576
285;4578
287;4580
289;4582
290;4584
291;4586
291;4588
289;4590
287;4592
286;4594
286;4596
288;4598
289;4600
291;4602
293;4604
293;4606
294;4608
292;4610
290;4612
289;4614
289;4616
290;4618
292;4620
294;4622
296;4624
297;4626
297;4628
296;4630
293;4632
292;4634
292;4636
294;4638
296;4640
298;4642
300;4644
301;4646
300;4648
299;4651
297;4653
295;4655
296;4657
298;4659
299;4661
301;4663
302;4665
303;4667
302;4669
299;4671
297;4673
295;4675
296;4677
297;4679
299;4681
299;4683
300;4685
300;4687
298;4689
295;4691
293;4694
291;4696
292;4698
293;4700
294;4702
295;4704
295;4706
295;4708
292;4710
289;4712
287;4714
286;4716
287;4718
288;4720
289;4722
289;4724
290;4726
289;4728
286;4730
284;4732
282;4734
281;4736
282;4738
283;4740
284;4742
285;4744
286;4746
286;4748
284;4750
281;4752
279;4754
279;4756
280;4758
281;4760
283;4762
284;4764
285;4766
284;4768
283;4770
280;4772
278;4774
278;4776
280;4779
282;4781
283;4783
285;4785
285;4787
284;4789
282;4791
280;4793
279;4795
280;4797
281;4799
283;4801
285;4803
286;4805
287;4807
286;4809
284;4811
282;4813
281;4815
282;4817
284;4819
286;4822
287;4824
288;4826
289;4828
288;4830
286;4832
283;4834
283;4836
285;4838
287;4840
288;4842
290;4844
291;4846
291;4848
289;4850
287;4852
286;4854
285;4856
287;4858
289;4860
290;4862
291;4864
292;4866
292;4868
291;4870
289;4872
287;4874
287;4876
288;4878
290;4880
291;4882
293;4884
294;4886
294;4888
293;4890
290;4892
288;4894
288;4896
290;4898
291;4900
292;4902
294;4904
295;4907
294;4909
293;4911
290;4913
289;4915
289;4917
290;4919
292;4921
294;4923
295;4925
295;4927
295;4929
293;4931
290;4933
289;4935
289;4937
291;4939
292;4941
294;4943
295;4945
295;4947
294;4950
292;4952
290;4954
289;4956
290;4958
291;4960
293;4962
294;4964
295;4966
295;4968
294;4970
291;4972
289;4974
289;4976
290;4978
292;4980
294;4982
295;4984
295;4986
295;4988
294;4990
292;4992
291;4994
289;4996
290;4998
292;5000
293;5002
295;5004
296;5006
296;5008
295;5010
292;5012
290;5014
290;5016
291;5018
293;5020
294;5022
296;5024
298;5026
297;5028
296;5030
293;5032
291;5035
291;5037
293;5039
295;5041
297;5043
299;5045
300;5047
300;5049
298;5051
296;5053
295;5055
295;5057
297;5059
299;5061
300;5063
301;5065
302;5067
301;5069
299;5071
297;5073
295;5075
295;5078
296;5080
298;5082
299;5084
300;5086
300;5088
298;5090
296;5092
294;5094
293;5096
294;5098
295;5100
297;5102
298;5104
299;5106
299;5108
297;5110
294;5112
292;5114
292;5116
293;5118
294;5120
295;5122
296;5124
298;5126
298;5128
297;5130
295;5132
292;5134
291;5136
292;5138
294;5140
295;5142
296;5144
298;5146
298;5148
296;5150
294;5152
291;5154
290;5156
289;5158
290;5160
290;5163
289;5165
288;5167
287;5169
285;5171
282;5173
281;5175
284;5177
289;5179
297;5181
305;5183
312;5185
321;5187
328;5189
333;5191
338;5193
342;5195
346;5197
349;5199
349;5201
349;5203
347;5206
345;5208
341;5210
336;5212
330;5214
326;5216
325;5218
324;5220
324;5222
323;5224
322;5226
321;5228
318;5230
314;5232
311;5234
309;5236
308;5238
308;5240
309;5242
309;5244
308;5246
308;5248
306;5250
302;5252
299;5254
296;5256
296;5258
297;5260
298;5262
298;5264
299;5266
298;5268
296;5270
293;5272
290;5274
289;5276
289;5278
290;5280
291;5282
292;5284
293;5286
293;5288
291;5291
288;5293
286;5295
285;5297
286;5299
288;5301
289;5303
290;5305
290;5307
290;5309
288;5311
286;5313
284;5315
284;5317
285;5319
287;5321
288;5323
289;5325
290;5327
289;5329
287;5331
285;5334
283;5336
284;5338
286;5340
287;5342
289;5344
290;5346
291;5348
290;5350
288;5352
285;5354
285;5356
286;5358
287;5360
290;5362
291;5364
292;5366
293;5368
292;5370
290;5372
288;5374
288;5376
288;5378
290;5380
292;5382
293;5384
295;5386
296;5388
295;5390
293;5392
291;5394
291;5396
292;5398
294;5400
296;5402
297;5404
299;5406
300;5408
299;5410
297;5412
295;5414
295;5416
296;5419
299;5421
301;5423
302;5425
304;5427
305;5429
303;5431
301;5433
300;5435
300;5437
302;5439
304;5441
306;5443
308;5445
309;5447
309;5449
307;5451
305;5453
304;5455
304;5457
306;5459
308;5462
309;5464
310;5466
311;5468
310;5470
308;5472
305;5474
304;5476
304;5478
305;5480
306;5482
308;5484
308;5486
308;5488
307;5490
304;5492
302;5494
300;5496
301;5498
302;5500
303;5502
304;5504
305;5506
305;5508
304;5510
302;5512
299;5514
297;5516
297;5518
299;5520
300;5522
301;5524
301;5526
302;5528
300;5530
298;5532
295;5534
294;5536
294;5538
295;5540
297;5542
298;5544
299;5547
299;5549
297;5551
295;5553
292;5555
292;5557
293;5559
294;5561
296;5563
297;5565
298;5567
298;5569
296;5571
293;5573
291;5575
291;5577
292;5579
294;5581
296;5583
297;5585
297;5587
297;5590
295;5592
292;5594
291;5596
291;5598
293;5600
294;5602
295;5604
297;5606
297;5608
296;5610
293;5612
291;5614
290;5616
290;5618
292;5620
293;5622
295;5624
295;5626
296;5628
294;5630
293;5632
291;5634
289;5636
289;5638
290;5640
292;5642
293;5644
294;5646
294;5648
294;5650
291;5652
289;5654
287;5656
288;5658
289;5660
291;5662
292;5664
293;5666
293;5668
292;5670
289;5672
287;5675
286;5677
287;5679
288;5681
289;5683
290;5685
291;5687
291;5689
290;5691
287;5693
285;5695
284;5697
285;5699
287;5701
289;5703
290;5705
291;5707
291;5709
288;5711
286;5713
284;5715
284;5718
286;5720
287;5722
288;5724
290;5726
290;5728
290;5730
287;5732
285;5734
284;5736
284;5738
286;5740
287;5742
289;5744
290;5746
291;5748
290;5750
288;5752
285;5754
285;5756
285;5758
286;5760
288;5762
289;5764
291;5766
292;5768
291;5770
290;5772
288;5774
286;5776
287;5778
289;5780
291;5782
293;5784
294;5786
295;5788
294;5790
292;5792
290;5794
289;5796
290;5798
291;5800
293;5803
294;5805
295;5807
295;5809
294;5811
291;5813
289;5815
288;5817
289;5819
290;5821
291;5823
292;5825
293;5827
293;5829
291;5831
289;5833
287;5835
286;5837
287;5839
289;5841
290;5843
292;5846
292;5848
292;5850
290;5852
287;5854
286;5856
286;5858
287;5860
288;5862
290;5864
291;5866
292;5868
292;5870
289;5872
287;5874
286;5876
286;5878
288;5880
290;5882
291;5884
292;5886
291;5888
291;5890
288;5892
284;5894
280;5896
279;5898
279;5900
279;5902
280;5904
282;5906
285;5908
287;5910
290;5912
293;5914
299;5916
307;5918
316;5920
325;5922
334;5924
341;5926
346;5928
349;5931
347;5933
344;5935
340;5937
339;5939
337;5941
335;5943
333;5945
331;5947
329;5949
325;5951
321;5953
317;5955
315;5957
315;5959
315;5961
315;5963
315;5965
314;5967
312;5969
309;5971
305;5974
302;5976
300;5978
300;5980
301;5982
301;5984
301;5986
301;5988
300;5990
297;5992
294;5994
291;5996
291;5998
292;6000
292;6002
293;6004
294;6006
294;6008
293;6010
290;6012
287;6014
286;6016
286;6018
287;6020
288;6022
289;6024
290;6026
290;6028
290;6030
288;6032
285;6034
284;6036
284;6038
285;6040
286;6042
288;6044
289;6046
290;6048
289;6050
287;6052
285;6054
284;6056
284;6059
286;6061
287;6063
289;6065
290;6067
290;6069
290;6071
287;6073
286;6075
284;6077
285;6079
287;6081
289;6083
290;6085
292;6087
292;6089
291;6091
289;6093
287;6095
286;6097
288;6099
290;6102
291;6104
293;6106
294;6108
294;6110
293;6112
291;6114
289;6116
289;6118
291;6120
293;6122
294;6124
296;6126
297;6128
297;6130
296;6132
293;6134
292;6136
293;6138
295;6140
297;6142
297;6144
299;6146
301;6148
301;6150
300;6152
298;6154
296;6156
296;6158
298;6160
300;6162
302;6164
304;6166
305;6168
305;6170
303;6172
301;6174
300;6176
300;6178
302;6180
304;6182
306;6184
307;6187
307;6189
307;6191
304;6193
302;6195
300;6197
301;6199
302;6201
304;6203
305;6205
305;6207
305;6209
303;6211
301;6213
298;6215
297;6217
297;6219
298;6221
299;6223
301;6225
301;6227
300;6230
298;6232
295;6234
293;6236
292;6238
293;6240
294;6242
294;6244
296;6246
296;6248
295;6250
293;6252
290;6254
288;6256
288;6258
288;6260
290;6262
291;6264
292;6266
292;6268
291;6270
290;6272
288;6274
286;6276
285;6278
286;6280
287;6282
288;6284
290;6286
290;6288
291;6290
289;6292
286;6294
284;6296
284;6298
286;6300
287;6302
288;6304
290;6306
291;6308
291;6310
289;6312
286;6315
285;6317
285;6319
287;6321
289;6323
290;6325
291;6327
292;6329
291;6331
290;6333
288;6335
286;6337
287;6339
288;6341
290;6343
292;6345
293;6347
294;6349
292;6351
290;6353
288;6355
288;6358
289;6360
290;6362
292;6364
293;6366
295;6368
295;6370
293;6372
291;6374
289;6376
289;6378
290;6380
292;6382
293;6384
295;6386
296;6388
296;6390
294;6392
291;6394
290;6396
290;6398
290;6400
292;6402
294;6404
295;6406
296;6408
296;6410
295;6412
292;6414
290;6416
290;6418
291;6420
293;6422
294;6424
296;6426
297;6428
297;6430
295;6432
293;6434
291;6436
291;6438
292;6440
294;6443
295;6445
296;6447
297;6449
296;6451
294;6453
292;6455
291;6457
291;6459
292;6461
294;6463
295;6465
297;6467
297;6469
296;6471
294;6473
291;6475
291;6477
291;6479
293;6481
294;6483
296;6486
297;6488
297;6490
296;6492
293;6494
291;6496
291;6498
292;6500
293;6502
295;6504
296;6506
297;6508
298;6510
296;6512
294;6514
292;6516
292;6518
293;6520
295;6522
297;6524
298;6526
299;6528
299;6530
298;6532
296;6534
294;6536
293;6538
294;6540
296;6542
298;6544
301;6546
302;6548
302;6550
301;6552
299;6554
298;6556
297;6558
299;6560
300;6562
302;6564
303;6566
304;6568
304;6571
302;6573
299;6575
297;6577
297;6579
299;6581
300;6583
301;6585
302;6587
302;6589
301;6591
299;6593
296;6595
295;6597
295;6599
297;6601
298;6603
299;6605
300;6607
300;6609
299;6611
297;6614
294;6616
293;6618
294;6620
295;6622
296;6624
298;6626
299;6628
299;6630
298;6632
295;6634
293;6636
292;6638
294;6640
295;6642
297;6644
298;6646
299;6648
299;6650
297;6652
294;6654
293;6656
291;6658
291;6660
292;6662
291;6664
291;6666
290;6668
289;6670
287;6672
283;6674
281;6676
282;6678
286;6680
291;6682
298;6684
307;6686
315;6688
324;6690
330;6692
337;6694
343;6696
350;6699
357;6701
361;6703
363;6705
363;6707
361;6709
358;6711
352;6713
348;6715
343;6717
341;6719
340;6721
339;6723
339;6725
338;6727
336;6729
333;6731
329;6733
325;6735
321;6737
320;6739
319;6742
319;6744
318;6746
317;6748
315;6750
313;6752
309;6754
305;6756
303;6758
302;6760
302;6762
302;6764
302;6766
302;6768
301;6770
298;6772
295;6774
292;6776
291;6778
291;6780
292;6782
292;6784
293;6786
293;6788
293;6790
291;6792
289;6794
286;6796
284;6798
285;6800
286;6802
287;6804
288;6806
289;6808
289;6810
287;6812
284;6814
282;6816
282;6818
282;6820
284;6822
285;6824
287;6827
288;6829
287;6831
285;6833
283;6835
281;6837
281;6839
282;6841
284;6843
286;6845
287;6847
288;6849
287;6851
285;6853
283;6855
282;6857
282;6859
283;6861
285;6863
287;6865
288;6867
289;6870
288;6872
286;6874
284;6876
283;6878
283;6880
285;6882
287;6884
289;6886
290;6888
291;6890
290;6892
288;6894
286;6896
285;6898
286;6900
288;6902
290;6904
291;6906
293;6908
293;6910
293;6912
290;6914
289;6916
288;6918
288;6920
290;6922
292;6924
294;6926
295;6928
296;6930
295;6932
293;6934
291;6936
291;6938
292;6940
293;6942
295;6944
297;6946
298;6948
299;6950
297;6952
295;6955
293;6957
293;6959
294;6961
296;6963
297;6965
299;6967
300;6969
300;6971
298;6973
296;6975
294;6977
294;6979
295;6981
297;6983
298;6985
299;6987
300;6989
299;6991
297;6993
294;6995
292;6998
292;7000
294;7002
295;7004
296;7006
297;7008
297;7010
296;7012
293;7014
292;7016
290;7018
290;7020
291;7022
293;7024
294;7026
295;7028
295;7030
294;7032
291;7034
289;7036
288;7038
288;7040
290;7042
290;7044
292;7046
293;7048
294;7050
293;7052
290;7054
288;7056
287;7058
287;7060
289;7062
291;7064
292;7066
293;7068
293;7070
292;7072
290;7074
288;7076
287;7078
288;7080
289;7083
292;7085
293;7087
294;7089
294;7091
293;7093
291;7095
289;7097
288;7099
290;7101
292;7103
293;7105
295;7107
296;7109
296;7111
294;7113
292;7115
290;7117
291;7119
292;7121
294;7123
296;7126
298;7128
298;7130
298;7132
296;7134
294;7136
293;7138
293;7140
295;7142
297;7144
299;7146
300;7148
301;7150
300;7152
297;7154
296;7156
295;7158
296;7160
297;7162
299;7164
301;7166
301;7168
302;7170
302;7172
300;7174
298;7176
296;7178
296;7180
298;7182
299;7184
301;7186
303;7188
303;7190
302;7192
300;7194
298;7196
296;7198
297;7200
298;7202
300;7204
302;7206
302;7208
303;7211
302;7213
300;7215
297;7217
296;7219
298;7221
299;7223
301;7225
302;7227
303;7229
303;7231
302;7233
299;7235
297;7237
297;7239
298;7241
300;7243
301;7245
302;7247
303;7249
303;7251
301;7254
298;7256
297;7258
297;7260
298;7262
300;7264
301;7266
303;7268
303;7270
302;7272
300;7274
298;7276
296;7278
297;7280
298;7282
300;7284
301;7286
302;7288
303;7290
301;7292
299;7294
298;7296
296;7298
296;7300
297;7302
299;7304
300;7306
301;7308
302;7310
301;7312
299;7314
297;7316
295;7318
295;7320
297;7322
298;7324
300;7326
301;7328
302;7330
300;7332
298;7334
296;7336
295;7339
296;7341
297;7343
299;7345
301;7347
302;7349
302;7351
301;7353
299;7355
296;7357
296;7359
297;7361
299;7363
301;7365
302;7367
303;7369
304;7371
303;7373
301;7375
299;7377
299;7379
300;7382
302;7384
304;7386
305;7388
306;7390
305;7392
303;7394
300;7396
299;7398
299;7400
300;7402
301;7404
302;7406
303;7408
303;7410
302;7412
299;7414
297;7416
295;7418
295;7420
297;7422
297;7424
299;7426
299;7428
301;7430
300;7432
297;7434
295;7436
293;7438
293;7440
295;7442
296;7444
297;7446
298;7448
299;7450
298;7452
295;7454
293;7456
292;7458
292;7460
294;7462
295;7464
297;7467
297;7469
298;7471
297;7473
294;7475
292;7477
291;7479
292;7481
293;7483
294;7485
295;7487
295;7489
293;7491
290;7493
286;7495
282;7497
280;7499
281;7501
282;7503
285;7505
289;7507
294;7510
299;7512
305;7514
311;7516
317;7518
327;7520
337;7522
347;7524
356;7526
363;7528
367;7530
368;7532
365;7534
360;7536
356;7538
353;7540
352;7542
351;7544
349;7546
348;7548
347;7550
346;7552
342;7554
337;7556
333;7558
331;7560
330;7562
328;7564
328;7566
326;7568
325;7570
322;7572
318;7574
314;7576
311;7578
309;7580
309;7582
309;7584
308;7586
308;7588
307;7590
305;7592
301;7595
298;7597
295;7599
295;7601
295;7603
296;7605
296;7607
296;7609
296;7611
294;7613
290;7615
288;7617
286;7619
287;7621
288;7623
289;7625
290;7627
290;7629
290;7631
288;7633
285;7635
283;7638
282;7640
283;7642
285;7644
286;7646
287;7648
288;7650
288;7652
286;7654
283;7656
281;7658
281;7660
283;7662
284;7664
286;7666
287;7668
288;7670
287;7672
285;7674
283;7676
282;7678
282;7680
283;7682
285;7684
287;7686
288;7688
289;7690
289;7692
288;7694
286;7696
284;7698
284;7700
286;7702
287;7704
289;7706
290;7708
292;7710
291;7712
290;7714
287;7716
286;7718
286;7720
288;7723
290;7725
292;7727
293;7729
294;7731
293;7733
291;7735
289;7737
288;7739
289;7741
291;7743
293;7745
295;7747
296;7749
297;7751
296;7753
293;7755
292;7757
291;7759
293;7761
295;7763
297;7766
298;7768
299;7770
300;7772
298;7774
296;7776
294;7778
294;7780
296;7782
298;7784
299;7786
300;7788
301;7790
301;7792
299;7794
297;7796
295;7798
295;7800
296;7802
298;7804
299;7806
300;7808
300;7810
300;7812
298;7814
295;7816
293;7818
292;7820
293;7822
294;7824
296;7826
297;7828
297;7830
296;7832
294;7834
292;7836
289;7838
289;7840
290;7842
291;7844
293;7846
293;7848
294;7851
293;7853
290;7855
288;7857
286;7859
286;7861
288;7863
289;7865
290;7867
291;7869
291;7871
290;7873
287;7875
285;7877
284;7879
284;7881
286;7883
287;7885
289;7887
290;7889
290;7891
288;7894
286;7896
284;7898
283;7900
284;7902
286;7904
287;7906
289;7908
290;7910
289;7912
288;7914
286;7916
284;7918
284;7920
285;7922
287;7924
288;7926
290;7928
291;7930
291;7932
289;7934
288;7936
285;7938
285;7940
286;7942
288;7944
290;7946
291;7948
292;7950
293;7952
291;7954
289;7956
287;7958
287;7960
289;7962
290;7964
292;7966
293;7968
294;7970
294;7972
292;7974
290;7976
289;7979
289;7981
290;7983
292;7985
294;7987
295;7989
296;7991
295;7993
293;7995
291;7997
290;7999
290;8001
291;8003
293;8005
294;8007
296;8009
296;8011
295;8013
293;8015
290;8017
289;8019
290;8022
292;8024
294;8026
295;8028
296;8030
297;8032
295;8034
292;8036
290;8038
290;8040
291;8042
292;8044
294;8046
295;8048
297;8050
296;8052
295;8054
292;8056
290;8058
290;8060
291;8062
293;8064
294;8066
295;8068
296;8070
297;8072
295;8074
293;8076
291;8078
290;8080
291;8082
292;8084
294;8086
295;8088
296;8090
296;8092
295;8094
292;8096
290;8098
290;8100
292;8102
293;8104
294;8107
296;8109
296;8111
296;8113
294;8115
292;8117
290;8119
290;8121
292;8123
293;8125
295;8127
296;8129
297;8131
296;8133
294;8135
291;8137
290;8139
290;8141
292;8143
294;8145
295;8147
296;8150
296;8152
295;8154
293;8156
291;8158
290;8160
291;8162
293;8164
294;8166
296;8168
297;8170
297;8172
296;8174
293;8176
291;8178
291;8180
292;8182
294;8184
296;8186
297;8188
298;8190
298;8192
297;8194
295;8196
293;8198
292;8200
293;8202
295;8204
296;8206
298;8208
299;8210
299;8212
299;8214
296;8216
295;8218
295;8220
296;8222
298;8224
300;8226
302;8228
303;8230
303;8232
301;8235
299;8237
297;8239
297;8241
298;8243
300;8245
301;8247
302;8249
303;8251
302;8253
299;8255
296;8257
295;8259
295;8261
296;8263
297;8265
299;8267
299;8269
300;8271
299;8273
296;8275
293;8278
292;8280
292;8282
294;8284
295;8286
297;8288
297;8290
298;8292
296;8294
294;8296
291;8298
291;8300
292;8302
293;8304
294;8306
296;8308
297;8310
297;8312
295;8314
292;8316
290;8318
290;8320
291;8322
292;8324
294;8326
295;8328
296;8330
296;8332
295;8334
292;8336
289;8338
287;8340
286;8342
286;8344
285;8346
286;8348
285;8350
285;8352
284;8354
284;8356
285;8358
290;8360
298;8363
308;8365
318;8367
329;8369
339;8371
348;8373
355;8375
360;8377
363;8379
366;8381
367;8383
367;8385
366;8387
364;8389
362;8391
358;8393
354;8395
349;8397
345;8399
344;8401
343;8403
342;8406
341;8408
339;8410
336;8412
333;8414
328;8416
323;8418
320;8420
318;8422
317;8424
316;8426
315;8428
314;8430
312;8432
308;8434
304;8436
300;8438
298;8440
297;8442
297;8444
297;8446
297;8448
296;8450
295;8452
293;8454
289;8456
285;8458
283;8460
283;8462
283;8464
283;8466
284;8468
284;8470
284;8472
281;8474
278;8476
275;8478
274;8480
274;8482
276;8484
276;8486
277;8488
278;8491
278;8493
276;8495
273;8497
271;8499
271;8501
271;8503
273;8505
274;8507
275;8509
276;8511
276;8513
274;8515
271;8517
270;8519
270;8521
272;8523
273;8525
275;8527
276;8529
277;8531
276;8534
274;8536
272;8538
271;8540
272;8542
274;8544
275;8546
277;8548
278;8550
279;8552
278;8554
276;8556
274;8558
273;8560
275;8562
277;8564
279;8566
280;8568
282;8570
282;8572
281;8574
280;8576
278;8578
277;8580
278;8582
280;8584
282;8586
284;8588
285;8590
286;8592
286;8594
284;8596
282;8598
281;8600
283;8602
285;8604
287;8606
289;8608
290;8610
291;8612
290;8614
288;8616
286;8619
286;8621
288;8623
289;8625
292;8627
293;8629
294;8631
295;8633
293;8635
291;8637
290;8639
290;8641
291;8643
293;8645
295;8647
296;8649
297;8651
296;8653
294;8655
292;8657
290;8659
290;8662
292;8664
293;8666
294;8668
295;8670
296;8672
294;8674
292;8676
289;8678
288;8680
288;8682
290;8684
291;8686
292;8688
293;8690
293;8692
291;8694
289;8696
286;8698
285;8700
286;8702
286;8704
288;8706
289;8708
290;8710
290;8712
289;8714
286;8716
284;8718
282;8720
283;8722
284;8724
285;8726
287;8728
288;8730
288;8732
286;8734
284;8736
282;8738
281;8740
282;8742
283;8744
285;8747
286;8749
287;8751
287;8753
286;8755
283;8757
281;8759
281;8761
283;8763
284;8765
286;8767
287;8769
288;8771
288;8773
287;8775
284;8777
283;8779
283;8781
284;8783
286;8785
288;8787
289;8790
290;8792
290;8794
288;8796
286;8798
284;8800
285;8802
287;8804
289;8806
290;8808
291;8810
292;8812
291;8814
290;8816
287;8818
286;8820
287;8822
289;8824
291;8826
292;8828
293;8830
294;8832
294;8834
292;8836
289;8838
288;8840
288;8842
290;8844
291;8846
293;8848
295;8850
295;8852
294;8854
292;8856
290;8858
289;8860
289;8862
291;8864
293;8866
294;8868
295;8870
296;8872
295;8875
292;8877
290;8879
289;8881
290;8883
292;8885
293;8887
295;8889
296;8891
296;8893
294;8895
292;8897
290;8899
289;8901
291;8903
293;8905
294;8907
296;8909
296;8911
296;8913
294;8915
292;8918
290;8920
290;8922
292;8924
294;8926
295;8928
296;8930
297;8932
297;8934
294;8936
292;8938
291;8940
291;8942
292;8944
294;8946
295;8948
297;8950
297;8952
296;8954
294;8956
292;8958
291;8960
291;8962
293;8964
294;8966
296;8968
297;8970
298;8972
297;8974
295;8976
293;8978
291;8980
292;8982
293;8984
295;8986
297;8988
298;8990
298;8992
297;8994
295;8996
293;8998
292;9000
293;9003
295;9005
296;9007
298;9009
299;9011
299;9013
298;9015
296;9017
294;9019
293;9021
294;9023
296;9025
297;9027
299;9029
300;9031
299;9033
298;9035
295;9037
293;9039
293;9041
294;9043
296;9046
297;9048
298;9050
299;9052
299;9054
296;9056
294;9058
293;9060
293;9062
294;9064
296;9066
298;9068
299;9070
300;9072
299;9074
297;9076
295;9078
293;9080
294;9082
295;9084
297;9086
298;9088
299;9090
300;9092
300;9094
299;9096
296;9098
295;9100
296;9102
297;9104
299;9106
301;9108
302;9110
303;9112
302;9114
300;9116
298;9118
296;9120
296;9122
298;9124
299;9126
300;9128
301;9131
301;9133
300;9135
297;9137
295;9139
293;9141
294;9143
295;9145
296;9147
298;9149
298;9151
299;9153
297;9155
294;9157
291;9159
291;9161
292;9163
293;9165
295;9167
296;9169
297;9171
297;9174
294;9176
292;9178
290;9180
290;9182
291;9184
293;9186
294;9188
296;9190
296;9192
296;9194
294;9196
291;9198
290;9200
290;9202
292;9204
293;9206
295;9208
295;9210
295;9212
294;9214
292;9216
288;9218
284;9220
282;9222
282;9224
283;9226
283;9228
284;9230
287;9232
289;9234
292;9236
295;9238
301;9240
308;9242
318;9244
328;9246
338;9248
347;9250
353;9252
357;9254
358;9256
356;9259
354;9261
352;9263
351;9265
349;9267
347;9269
345;9271
343;9273
340;9275
335;9277
331;9279
329;9281
328;9283
327;9285
326;9287
325;9289
324;9291
322;9293
319;9295
314;9297
310;9299
308;9302
307;9304
307;9306
307;9308
306;9310
306;9312
304;9314
301;9316
297;9318
294;9320
293;9322
293;9324
294;9326
293;9328
294;9330
293;9332
292;9334
289;9336
286;9338
283;9340
283;9342
283;9344
284;9346
285;9348
286;9350
286;9352
286;9354
283;9356
280;9358
278;9360
277;9362
278;9364
280;9366
281;9368
282;9370
282;9372
281;9374
279;9376
276;9378
275;9380
275;9382
276;9384
278;9387
279;9389
280;9391
281;9393
280;9395
278;9397
275;9399
275;9401
275;9403
277;9405
278;9407
279;9409
280;9411
281;9413
280;9415
278;9417
275;9419
275;9421
276;9423
278;9425
279;9427
281;9430
282;9432
283;9434
281;9436
279;9438
277;9440
277;9442
279;9444
281;9446
282;9448
284;9450
285;9452
285;9454
283;9456
281;9458
280;9460
280;9462
282;9464
284;9466
286;9468
288;9470
288;9472
288;9474
288;9476
286;9478
284;9480
284;9482
286;9484
288;9486
290;9488
291;9490
293;9492
293;9494
292;9496
290;9498
288;9500
289;9502
290;9504
292;9506
295;9508
296;9510
297;9512
297;9515
295;9517
293;9519
292;9521
292;9523
294;9525
295;9527
297;9529
298;9531
299;9533
297;9535
295;9537
292;9539
291;9541
291;9543
293;9545
294;9547
295;9549
296;9551
296;9553
294;9555
292;9558
289;9560
288;9562
289;9564
290;9566
291;9568
293;9570
293;9572
293;9574
291;9576
288;9578
286;9580
285;9582
286;9584
287;9586
288;9588
289;9590
290;9592
289;9594
287;9596
284;9598
283;9600
282;9602
283;9604
284;9606
286;9608
287;9610
288;9612
288;9614
286;9616
284;9618
282;9620
282;9622
283;9624
284;9626
286;9628
287;9630
288;9632
288;9634
286;9636
284;9638
282;9640
282;9643
284;9645
286;9647
287;9649
289;9651
290;9653
289;9655
287;9657
285;9659
284;9661
285;9663
286;9665
288;9667
289;9669
290;9671
291;9673
290;9675
288;9677
286;9679
285;9681
286;9683
288;9686
290;9688
291;9690
292;9692
293;9694
291;9696
289;9698
287;9700
287;9702
288;9704
290;9706
291;9708
293;9710
294;9712
293;9714
292;9716
289;9718
288;9720
287;9722
289;9724
290;9726
291;9728
293;9730
294;9732
294;9734
293;9736
290;9738
288;9740
287;9742
289;9744
291;9746
292;9748
294;9750
294;9752
295;9754
293;9756
291;9758
289;9760
289;9762
290;9764
291;9766
293;9768
295;9771
295;9773
295;9775
293;9777
291;9779
289;9781
290;9783
291;9785
292;9787
294;9789
295;9791
296;9793
295;9795
293;9797
291;9799
289;9801
290;9803
291;9805
293;9807
294;9809
295;9811
296;9814
295;9816
292;9818
290;9820
290;9822
290;9824
292;9826
293;9828
295;9830
295;9832
296;9834
294;9836
292;9838
290;9840
289;9842
291;9844
292;9846
294;9848
295;9850
296;9852
296;9854
295;9856
293;9858
290;9860
289;9862
290;9864
292;9866
293;9868
295;9870
296;9872
296;9874
295;9876
293;9878
290;9880
290;9882
291;9884
293;9886
294;9888
296;9890
296;9892
296;9894
294;9896
292;9899
290;9901
290;9903
291;9905
293;9907
294;9909
296;9911
297;9913
297;9915
295;9917
293;9919
291;9921
291;9923
293;9925
295;9927
296;9929
297;9931
299;9933
298;9935
296;9937
294;9939
293;9942
294;9944
296;9946
298;9948
300;9950
301;9952
301;9954
300;9956
298;9958
295;9960
295;9962
295;9964
297;9966
298;9968
299;9970
300;9972
299;9974
297;9976
295;9978
293;9980
292;9982
293;9984
294;9986
295;9988
297;9990
297;9992
298;9994
296;9996
293;9998
291;10000
290;10002
291;10004
292;10006
294;10008
295;10010
296;10012
296;10014
294;10016
291;10018
289;10020
288;10022
290;10024
291;10027
293;10029
294;10031
295;10033
294;10035
292;10037
290;10039
288;10041
288;10043
289;10045
290;10047
291;10049
292;10051
291;10053
289;10055
285;10057
281;10059
278;10061
277;10063
278;10065
279;10067
281;10070
285;10072
290;10074
294;10076
299;10078
304;10080
311;10082
320;10084
330;10086
338;10088
345;10090
350;10092
352;10094
350;10096
346;10098
341;10100
338;10102
336;10104
335;10106
333;10108
332;10110
331;10112
329;10114
326;10116
323;10118
319;10120
316;10122
315;10124
315;10126
315;10128
314;10130
314;10132
312;10134
309;10136
305;10138
302;10140
300;10142
300;10144
300;10146
300;10148
300;10150
300;10152
299;10155
296;10157
293;10159
290;10161
289;10163
290;10165
291;10167
291;10169
292;10171
292;10173
291;10175
289;10177
286;10179
284;10181
283;10183
284;10185
286;10187
287;10189
288;10191
288;10193
287;10195
285;10198
282;10200
281;10202
281;10204
283;10206
284;10208
285;10210
286;10212
287;10214
286;10216
283;10218
281;10220
280;10222
281;10224
283;10226
284;10228
286;10230
286;10232
287;10234
285;10236
283;10238
282;10240
281;10242
281;10244
283;10246
285;10248
286;10250
288;10252
288;10254
288;10256
285;10258
283;10260
283;10262
283;10264
285;10266
287;10268
289;10270
290;10272
290;10274
289;10276
287;10278
285;10280
285;10283
286;10285
288;10287
290;10289
291;10291
293;10293
293;10295
292;10297
289;10299
288;10301
288;10303
289;10305
292;10307
293;10309
295;10311
296;10313
296;10315
295;10317
293;10319
291;10321
292;10323
294;10326
296;10328
298;10330
299;10332
300;10334
300;10336
298;10338
296;10340
295;10342
296;10344
297;10346
299;10348
301;10350
302;10352
302;10354
301;10356
299;10358
297;10360
295;10362
297;10364
298;10366
299;10368
300;10370
301;10372
301;10374
300;10376
298;10378
295;10380
293;10382
294;10384
294;10386
296;10388
297;10390
298;10392
298;10394
296;10396
294;10398
291;10400
289;10402
290;10404
291;10406
292;10408
293;10411
293;10413
293;10415
291;10417
288;10419
286;10421
285;10423
286;10425
287;10427
288;10429
289;10431
290;10433
290;10435
288;10437
285;10439
283;10441
283;10443
284;10445
286;10447
287;10449
288;10451
289;10454
289;10456
286;10458
284;10460
283;10462
283;10464
284;10466
286;10468
288;10470
289;10472
290;10474
288;10476
287;10478
285;10480
284;10482
284;10484
286;10486
288;10488
289;10490
290;10492
291;10494
291;10496
289;10498
287;10500
286;10502
286;10504
287;10506
289;10508
291;10510
292;10512
293;10514
292;10516
290;10518
288;10520
287;10522
287;10524
289;10526
291;10528
293;10530
294;10532
294;10534
293;10536
291;10539
289;10541
288;10543
289;10545
290;10547
292;10549
293;10551
294;10553
295;10555
294;10557
291;10559
289;10561
289;10563
290;10565
291;10567
293;10569
294;10571
295;10573
295;10575
293;10577
291;10579
289;10582
289;10584
291;10586
292;10588
294;10590
295;10592
296;10594
296;10596
293;10598
291;10600
290;10602
290;10604
291;10606
293;10608
294;10610
296;10612
297;10614
296;10616
293;10618
291;10620
290;10622
290;10624
292;10626
293;10628
295;10630
296;10632
297;10634
297;10636
294;10638
292;10640
291;10642
291;10644
292;10646
294;10648
296;10650
296;10652
297;10654
296;10656
294;10658
292;10660
291;10662
291;10664
293;10667
294;10669
296;10671
297;10673
297;10675
296;10677
293;10679
291;10681
290;10683
291;10685
293;10687
294;10689
296;10691
297;10693
297;10695
296;10697
293;10699
291;10701
291;10703
292;10705
294;10707
296;10710
297;10712
298;10714
298;10716
296;10718
294;10720
293;10722
293;10724
295;10726
297;10728
299;10730
300;10732
301;10734
301;10736
299;10738
297;10740
295;10742
296;10744
297;10746
299;10748
300;10750
301;10752
301;10754
301;10756
299;10758
296;10760
294;10762
294;10764
294;10766
296;10768
297;10770
298;10772
299;10774
298;10776
296;10778
293;10780
291;10782
292;10784
293;10786
295;10788
296;10790
297;10792
297;10795
296;10797
294;10799
292;10801
290;10803
291;10805
292;10807
294;10809
296;10811
296;10813
297;10815
295;10817
293;10819
291;10821
290;10823
291;10825
293;10827
294;10829
295;10831
296;10833
295;10835
293;10838
288;10840
284;10842
283;10844
282;10846
283;10848
283;10850
285;10852
286;10854
289;10856
291;10858
294;10860
299;10862
307;10864
316;10866
326;10868
336;10870
344;10872
351;10874
355;10876
355;10878
354;10880
351;10882
349;10884
347;10886
346;10888
344;10890
342;10892
340;10894
338;10896
333;10898
329;10900
326;10902
325;10904
324;10906
324;10908
323;10910
322;10912
321;10914
319;10916
315;10918
311;10920
309;10923
307;10925
307;10927
308;10929
308;10931
307;10933
307;10935
304;10937
301;10939
298;10941
296;10943
296;10945
296;10947
297;10949
298;10951
298;10953
297;10955
295;10957
292;10959
289;10961
288;10963
289;10966
290;10968
292;10970
292;10972
293;10974
293;10976
291;10978
288;10980
286;10982
285;10984
287;10986
288;10988
289;10990
291;10992
291;10994
291;10996
289;10998
286;11000
285;11002
285;11004
287;11006
288;11008
289;11010
290;11012
292;11014
292;11016
290;11018
288;11020
286;11022
286;11024
288;11026
289;11028
291;11030
292;11032
293;11034
293;11036
291;11038
289;11040
288;11042
288;11044
290;11046
292;11048
293;11051
295;11053
296;11055
295;11057
293;11059
291;11061
290;11063
291;11065
292;11067
294;11069
296;11071
297;11073
298;11075
297;11077
295;11079
293;11081
293;11083
294;11085
296;11087
298;11089
299;11091
301;11094
301;11096
300;11098
298;11100
296;11102
296;11104
297;11106
299;11108
301;11110
303;11112
304;11114
304;11116
303;11118
300;11120
299;11122
299;11124
301;11126
303;11128
304;11130
306;11132
307;11134
307;11136
305;11138
303;11140
301;11142
301;11144
301;11146
303;11148
305;11150
306;11152
307;11154
306;11156
304;11158
302;11160
300;11162
299;11164
300;11166
301;11168
303;11170
304;11172
304;11174
303;11176
301;11179
299;11181
297;11183
296;11185
297;11187
298;11189
300;11191
301;11193
301;11195
300;11197
297;11199
294;11201
293;11203
293;11205
294;11207
296;11209
297;11211
297;11213
298;11215
296;11217
293;11219
291;11222
290;11224
291;11226
293;11228
294;11230
295;11232
296;11234
296;11236
294;11238
292;11240
290;11242
290;11244
291;11246
292;11248
294;11250
295;11252
296;11254
296;11256
294;11258
292;11260
290;11262
290;11264
291;11266
293;11268
295;11270
296;11272
297;11274
297;11276
296;11278
294;11280
291;11282
292;11284
293;11286
294;11288
296;11290
298;11292
299;11294
298;11296
297;11298
294;11300
293;11302
293;11304
294;11307
296;11309
298;11311
299;11313
299;11315
299;11317
297;11319
295;11321
294;11323
293;11325
295;11327
297;11329
299;11331
300;11333
300;11335
299;11337
297;11339
295;11341
294;11343
294;11345
296;11347
297;11350
299;11352
300;11354
300;11356
299;11358
296;11360
294;11362
294;11364
295;11366
296;11368
298;11370
299;11372
300;11374
300;11376
298;11378
295;11380
294;11382
294;11384
295;11386
296;11388
298;11390
298;11392
299;11394
300;11396
298;11398
296;11400
294;11402
293;11404
294;11406
295;11408
297;11410
299;11412
300;11414
299;11416
298;11418
295;11420
293;11422
293;11424
294;11426
296;11428
298;11430
299;11432
300;11435
299;11437
297;11439
295;11441
293;11443
294;11445
295;11447
296;11449
298;11451
299;11453
300;11455
299;11457
297;11459
295;11461
294;11463
294;11465
295;11467
297;11469
299;11471
300;11473
301;11475
300;11478
298;11480
296;11482
295;11484
295;11486
297;11488
299;11490
301;11492
302;11494
302;11496
301;11498
299;11500
297;11502
297;11504
298;11506
300;11508
302;11510
304;11512
305;11514
305;11516
303;11518
301;11520
299;11522
298;11524
299;11526
300;11528
301;11530
302;11532
303;11534
303;11536
301;11538
299;11540
296;11542
295;11544
296;11546
297;11548
298;11550
300;11552
300;11554
300;11556
298;11558
295;11560
293;11563
293;11565
294;11567
296;11569
297;11571
298;11573
299;11575
299;11577
296;11579
294;11581
292;11583
292;11585
293;11587
295;11589
297;11591
298;11593
298;11595
298;11597
295;11599
293;11601
292;11603
292;11606
294;11608
295;11610
296;11612
295;11614
294;11616
291;11618
287;11620
284;11622
281;11624
281;11626
283;11628
285;11630
289;11632
294;11634
300;11636
305;11638
311;11640
317;11642
326;11644
336;11646
341;11648
351;11650
360;11652
365;11654
368;11656
366;11658
362;11660
358;11662
354;11664
351;11666
350;11668
349;11670
347;11672
346;11674
344;11676
340;11678
336;11680
332;11682
328;11684
327;11686
327;11688
326;11691
325;11693
323;11695
321;11697
317;11699
313;11701
309;11703
307;11705
306;11707
307;11709
306;11711
306;11713
305;11715
303;11717
300;11719
296;11721
294;11723
293;11725
293;11727
293;11729
294;11731
294;11734
294;11736
292;11738
289;11740
286;11742
284;11744
284;11746
286;11748
286;11750
287;11752
288;11754
288;11756
286;11758
284;11760
281;11762
280;11764
281;11766
282;11768
284;11770
285;11772
286;11774
286;11776
285;11778
283;11780
281;11782
280;11784
279;11786
281;11788
283;11790
284;11792
285;11794
286;11796
285;11798
283;11800
280;11802
280;11804
281;11806
282;11808
284;11810
285;11812
287;11814
287;11816
286;11819
283;11821
281;11823
281;11825
282;11827
284;11829
286;11831
288;11833
288;11835
289;11837
287;11839
285;11841
284;11843
284;11845
285;11847
287;11849
289;11851
290;11853
291;11855
291;11857
289;11859
287;11862
286;11864
286;11866
289;11868
290;11870
292;11872
294;11874
295;11876
294;11878
292;11880
290;11882
289;11884
290;11886
292;11888
294;11890
296;11892
297;11894
298;11896
297;11898
294;11900
292;11902
292;11904
292;11906
294;11908
296;11910
298;11912
299;11914
299;11916
299;11918
296;11920
294;11922
293;11924
294;11926
295;11928
296;11930
298;11932
299;11934
299;11936
298;11938
295;11940
293;11942
292;11944
292;11947
294;11949
295;11951
296;11953
297;11955
297;11957
295;11959
292;11961
290;11963
289;11965
290;11967
291;11969
293;11971
294;11973
294;11975
294;11977
292;11979
289;11981
287;11983
287;11985
288;11987
289;11990
291;11992
292;11994
292;11996
291;11998
289;12000
287;12002
285;12004
286;12006
287;12008
289;12010
290;12012
291;12014
292;12016
291;12018
289;12020
286;12022
285;12024
286;12026
288;12028
290;12030
290;12032
292;12034
292;12036
292;12038
290;12040
288;12042
287;12044
287;12046
289;12048
290;12050
292;12052
293;12054
294;12056
293;12058
291;12060
289;12062
288;12064
289;12066
291;12068
293;12070
294;12072
295;12075
296;12077
295;12079
292;12081
290;12083
290;12085
291;12087
293;12089
294;12091
296;12093
297;12095
297;12097
296;12099
293;12101
291;12103
291;12105
292;12107
294;12109
296;12111
297;12113
297;12115
297;12118
295;12120
293;12122
291;12124
291;12126
293;12128
294;12130
296;12132
297;12134
298;12136
297;12138
295;12140
293;12142
292;12144
291;12146
293;12148
295;12150
296;12152
297;12154
298;12156
296;12158
296;12160
293;12162
291;12164
291;12166
293;12168
294;12170
296;12172
297;12174
298;12176
297;12178
295;12180
293;12182
291;12184
291;12186
293;12188
294;12190
296;12192
297;12194
297;12196
296;12198
294;12200
292;12203
291;12205
292;12207
293;12209
295;12211
296;12213
297;12215
298;12217
297;12219
294;12221
292;12223
291;12225
292;12227
294;12229
295;12231
297;12233
298;12235
298;12237
296;12239
294;12241
291;12243
291;12246
293;12248
294;12250
296;12252
297;12254
298;12256
298;12258
296;12260
294;12262
292;12264
293;12266
295;12268
296;12270
298;12272
299;12274
300;12276
299;12278
297;12280
295;12282
294;12284
295;12286
296;12288
298;12290
300;12292
302;12294
303;12296
302;12298
301;12300
298;12302
297;12304
297;12306
299;12308
300;12310
301;12312
302;12314
303;12316
302;12318
300;12320
297;12322
295;12324
295;12326
296;12328
298;12331
299;12333
299;12335
300;12337
298;12339
295;12341
293;12343
292;12345
293;12347
294;12349
295;12351
297;12353
297;12355
297;12357
296;12359
293;12361
291;12363
290;12365
291;12367
293;12369
294;12371
295;12374
296;12376
296;12378
294;12380
291;12382
289;12384
289;12386
291;12388
292;12390
294;12392
295;12394
295;12396
294;12398
291;12400
287;12402
284;12404
283;12406
282;12408
282;12410
282;12412
282;12414
283;12416
283;12418
284;12420
286;12422
289;12424
295;12426
305;12428
315;12430
325;12432
336;12434
346;12436
354;12438
358;12440
360;12442
361;12444
360;12446
360;12448
358;12450
357;12452
354;12454
352;12456
349;12459
344;12461
340;12463
337;12465
335;12467
334;12469
333;12471
332;12473
330;12475
328;12477
324;12479
320;12481
316;12483
312;12485
312;12487
311;12489
310;12491
310;12493
309;12495
307;12497
304;12499
300;12502
297;12504
295;12506
295;12508
295;12510
295;12512
295;12514
295;12516
294;12518
291;12520
288;12522
285;12524
284;12526
285;12528
286;12530
287;12532
287;12534
287;12536
286;12538
284;12540
281;12542
280;12544
279;12546
279;12548
281;12550
282;12552
283;12554
284;12556
284;12558
282;12560
279;12562
277;12564
277;12566
278;12568
280;12570
282;12572
283;12574
283;12576
283;12578
281;12580
279;12582
277;12584
278;12587
279;12589
281;12591
282;12593
284;12595
284;12597
284;12599
282;12601
279;12603
278;12605
279;12607
281;12609
283;12611
284;12613
285;12615
286;12617
285;12619
283;12621
281;12623
280;12625
282;12627
283;12630
285;12632
287;12634
288;12636
288;12638
287;12640
284;12642
283;12644
283;12646
284;12648
286;12650
288;12652
289;12654
291;12656
291;12658
289;12660
287;12662
285;12664
286;12666
288;12668
289;12670
290;12672
292;12674
293;12676
294;12678
292;12680
290;12682
288;12684
288;12686
289;12688
291;12690
293;12692
294;12694
296;12696
296;12698
294;12700
291;12702
290;12704
290;12706
291;12708
292;12710
294;12712
295;12715
296;12717
295;12719
293;12721
291;12723
289;12725
289;12727
290;12729
292;12731
293;12733
294;12735
294;12737
293;12739
291;12741
288;12743
287;12745
287;12747
288;12749
290;12751
291;12753
292;12755
292;12758
290;12760
288;12762
285;12764
284;12766
285;12768
286;12770
288;12772
290;12774
290;12776
290;12778
288;12780
285;12782
283;12784
283;12786
284;12788
286;12790
287;12792
288;12794
289;12796
289;12798
288;12800
286;12802
283;12804
283;12806
284;12808
285;12810
287;12812
288;12814
289;12816
290;12818
288;12820
286;12822
284;12824
285;12826
285;12828
287;12830
289;12832
290;12834
291;12836
291;12838
289;12840
287;12843
286;12845
286;12847
288;12849
289;12851
291;12853
292;12855
293;12857
293;12859
291;12861
289;12863
287;12865
288;12867
290;12869
291;12871
293;12873
294;12875
295;12877
294;12879
292;12881
290;12883
289;12886
290;12888
291;12890
293;12892
294;12894
295;12896
295;12898
294;12900
292;12902
290;12904
290;12906
291;12908
292;12910
294;12912
295;12914
296;12916
296;12918
294;12920
292;12922
290;12924
290;12926
291;12928
292;12930
294;12932
295;12934
296;12936
296;12938
295;12940
293;12942
291;12944
290;12946
291;12948
293;12950
294;12952
296;12954
297;12956
297;12958
295;12960
293;12962
291;12964
290;12966
292;12968
293;12971
295;12973
296;12975
297;12977
296;12979
295;12981
292;12983
291;12985
291;12987
292;12989
294;12991
296;12993
296;12995
297;12997
297;12999
294;13001
292;13003
291;13005
291;13007
293;13009
295;13011
296;13014
297;13016
298;13018
297;13020
295;13022
293;13024
292;13026
293;13028
294;13030
296;13032
298;13034
299;13036
299;13038
298;13040
296;13042
294;13044
294;13046
296;13048
297;13050
299;13052
301;13054
302;13056
303;13058
302;13060
300;13062
298;13064
297;13066
297;13068
299;13070
300;13072
302;13074
303;13076
303;13078
301;13080
298;13082
295;13084
294;13086
295;13088
296;13090
298;13092
299;13094
300;13096
299;13099
297;13101
294;13103
292;13105
292;13107
293;13109
295;13111
296;13113
297;13115
297;13117
297;13119
295;13121
292;13123
290;13125
291;13127
292;13129
293;13131
295;13133
296;13135
296;13137
295;13139
293;13142
290;13144
289;13146
290;13148
292;13150
293;13152
295;13154
295;13156
295;13158
293;13160
289;13162
286;13164
283;13166
282;13168
282;13170
282;13172
282;13174
282;13176
284;13178
285;13180
286;13182
287;13184
292;13186
300;13188
310;13190
321;13192
332;13194
342;13196
351;13198
357;13200
360;13202
361;13204
361;13206
360;13208
359;13210
357;13212
356;13214
354;13216
351;13218
347;13220
342;13222
338;13224
335;13227
334;13229
333;13231
332;13233
331;13235
329;13237
327;13239
322;13241
318;13243
314;13245
312;13247
311;13249
311;13251
310;13253
310;13255
308;13257
307;13259
303;13261
299;13263
296;13265
295;13267
295;13270
295;13272
296;13274
296;13276
295;13278
293;13280
290;13282
287;13284
285;13286
285;13288
286;13290
287;13292
288;13294
288;13296
288;13298
286;13300
283;13302
281;13304
280;13306
280;13308
281;13310
282;13312
283;13314
284;13316
285;13318
283;13320
281;13322
279;13324
277;13326
278;13328
279;13330
281;13332
282;13334
283;13336
284;13338
282;13340
280;13342
278;13344
277;13346
278;13348
280;13350
282;13352
283;13355
284;13357
285;13359
283;13361
281;13363
279;13365
279;13367
280;13369
282;13371
283;13373
285;13375
286;13377
286;13379
284;13381
282;13383
280;13385
280;13387
282;13389
284;13391
286;13393
287;13395
288;13398
288;13400
286;13402
284;13404
283;13406
284;13408
285;13410
287;13412
289;13414
290;13416
291;13418
290;13420
288;13422
286;13424
286;13426
287;13428
289;13430
290;13432
292;13434
293;13436
294;13438
293;13440
292;13442
289;13444
288;13446
288;13448
290;13450
292;13452
294;13454
295;13456
295;13458
295;13460
292;13462
290;13464
289;13466
289;13468
291;13470
292;13472
294;13474
295;13476
295;13478
294;13480
291;13483
289;13485
288;13487
289;13489
290;13491
291;13493
293;13495
293;13497
294;13499
292;13501
289;13503
287;13505
286;13507
288;13509
289;13511
290;13513
291;13515
292;13517
291;13519
289;13521
287;13523
285;13526
285;13528
286;13530
288;13532
289;13534
290;13536
291;13538
290;13540
288;13542
285;13544
284;13546
284;13548
286;13550
287;13552
289;13554
290;13556
290;13558
289;13560
287;13562
285;13564
284;13566
284;13568
286;13570
288;13572
289;13574
290;13576
291;13578
291;13580
289;13582
287;13584
286;13586
286;13588
288;13590
289;13592
291;13594
292;13596
293;13598
292;13600
290;13602
289;13604
287;13606
288;13608
290;13611
291;13613
293;13615
294;13617
295;13619
293;13621
291;13623
289;13625
289;13627
290;13629
292;13631
293;13633
295;13635
295;13637
296;13639
294;13641
292;13643
290;13645
289;13647
291;13649
293;13651
294;13654
295;13656
296;13658
296;13660
294;13662
292;13664
290;13666
290;13668
292;13670
293;13672
295;13674
296;13676
296;13678
296;13680
293;13682
291;13684
290;13686
290;13688
292;13690
293;13692
295;13694
295;13696
296;13698
296;13700
294;13702
291;13704
289;13706
290;13708
291;13710
292;13712
294;13714
295;13716
296;13718
295;13720
293;13722
291;13724
289;13726
290;13728
292;13730
293;13732
295;13734
296;13736
296;13739
295;13741
293;13743
291;13745
290;13747
291;13749
292;13751
294;13753
295;13755
296;13757
296;13759
295;13761
293;13763
291;13765
290;13767
291;13769
293;13771
294;13773
296;13775
297;13777
296;13779
295;13782
292;13784
290;13786
291;13788
292;13790
294;13792
295;13794
297;13796
297;13798
297;13800
295;13802
293;13804
292;13806
292;13808
294;13810
295;13812
297;13814
298;13816
299;13818
298;13820
296;13822
295;13824
294;13826
294;13828
295;13830
297;13832
299;13834
301;13836
302;13838
302;13840
300;13842
297;13844
295;13846
296;13848
297;13850
298;13852
300;13854
300;13856
301;13858
299;13860
297;13862
294;13864
293;13867
293;13869
294;13871
296;13873
297;13875
297;13877
297;13879
296;13881
293;13883
291;13885
290;13887
291;13889
292;13891
294;13893
294;13895
295;13897
295;13899
293;13901
291;13903
289;13905
288;13907
289;13910
291;13912
292;13914
293;13916
294;13918
294;13920
292;13922
289;13924
287;13926
288;13928
289;13930
290;13932
292;13934
292;13936
291;13938
289;13940
285;13942
281;13944
278;13946
277;13948
278;13950
277;13952
279;13954
282;13956
285;13958
289;13960
293;13962
297;13964
303;13966
311;13968
322;13970
331;13972
340;13974
348;13976
354;13978
356;13980
355;13982
351;13984
347;13986
344;13988
342;13990
341;13992
339;13995
337;13997
335;13999
332;14001
328;14003
324;14005
322;14007
320;14009
320;14011
319;14013
318;14015
317;14017
316;14019
312;14021
308;14023
304;14025
302;14027
302;14029
301;14031
301;14033
302;14035
301;14038
300;14040
297;14042
293;14044
290;14046
289;14048
289;14050
289;14052
290;14054
291;14056
290;14058
290;14060
287;14062
284;14064
281;14066
281;14068
282;14070
283;14072
284;14074
285;14076
285;14078
285;14080
283;14082
280;14084
278;14086
278;14088
278;14090
280;14092
281;14094
283;14096
283;14098
283;14100
281;14102
278;14104
277;14106
277;14108
278;14110
280;14112
281;14114
282;14116
283;14118
283;14120
281;14123
279;14125
277;14127
278;14129
280;14131
281;14133
283;14135
284;14137
285;14139
284;14141
282;14143
280;14145
279;14147
280;14149
282;14151
283;14153
285;14155
287;14157
287;14159
286;14161
284;14163
282;14166
281;14168
283;14170
284;14172
286;14174
288;14176
289;14178
289;14180
288;14182
286;14184
284;14186
284;14188
286;14190
288;14192
289;14194
291;14196
292;14198
292;14200
290;14202
288;14204
287;14206
287;14208
288;14210
290;14212
292;14214
293;14216
295;14218
295;14220
294;14222
292;14224
290;14226
290;14228
291;14230
293;14232
294;14234
296;14236
297;14238
296;14240
294;14242
292;14244
290;14246
290;14248
292;14251
293;14253
295;14255
296;14257
296;14259
296;14261
293;14263
291;14265
289;14267
289;14269
291;14271
292;14273
293;14275
294;14277
294;14279
293;14281
290;14283
288;14285
287;14287
287;14289
288;14291
290;14294
291;14296
291;14298
292;14300
290;14302
287;14304
285;14306
284;14308
285;14310
286;14312
288;14314
289;14316
290;14318
290;14320
288;14322
285;14324
283;14326
283;14328
285;14330
286;14332
288;14334
288;14336
289;14338
290;14340
289;14342
286;14344
284;14346
283;14348
284;14350
286;14352
288;14354
289;14356
291;14358
291;14360
289;14362
287;14364
285;14366
285;14368
286;14370
288;14372
290;14374
291;14376
292;14379
292;14381
290;14383
288;14385
286;14387
286;14389
288;14391
290;14393
291;14395
292;14397
293;14399
293;14401
290;14403
288;14405
287;14407
288;14409
289;14411
291;14413
292;14415
293;14417
293;14419
293;14422
290;14424
288;14426
287;14428
288;14430
289;14432
291;14434
292;14436
294;14438
293;14440
292;14442
290;14444
287;14446
287;14448
288;14450
290;14452
291;14454
293;14456
293;14458
293;14460
291;14462
290;14464
288;14466
287;14468
288;14470
289;14472
290;14474
292;14476
293;14478
293;14480
292;14482
290;14484
288;14486
287;14488
288;14490
289;14492
291;14494
292;14496
293;14498
294;14500
291;14502
289;14504
287;14507
287;14509
288;14511
290;14513
291;14515
293;14517
293;14519
293;14521
291;14523
289;14525
287;14527
287;14529
289;14531
290;14533
292;14535
293;14537
294;14539
293;14541
290;14543
288;14545
287;14547
288;14550
290;14552
291;14554
293;14556
294;14558
294;14560
294;14562
291;14564
289;14566
288;14568
289;14570
291;14572
293;14574
295;14576
296;14578
296;14580
295;14582
293;14584
291;14586
291;14588
293;14590
294;14592
296;14594
297;14596
298;14598
299;14600
298;14602
295;14604
293;14606
292;14608
292;14610
294;14612
295;14614
296;14616
297;14618
297;14620
295;14622
292;14624
290;14626
289;14628
290;14630
291;14632
293;14635
294;14637
295;14639
295;14641
293;14643
290;14645
288;14647
288;14649
289;14651
290;14653
292;14655
293;14657
293;14659
293;14661
291;14663
288;14665
287;14667
287;14669
288;14671
290;14673
291;14675
292;14678
293;14680
292;14682
290;14684
287;14686
286;14688
286;14690
286;14692
286;14694
287;14696
285;14698
284;14700
282;14702
278;14704
275;14706
275;14708
278;14710
283;14712
289;14714
297;14716
305;14718
308;14720
315;14722
321;14724
326;14726
332;14728
338;14730
343;14732
347;14734
347;14736
346;14738
343;14740
340;14742
335;14744
329;14746
325;14748
323;14750
322;14752
321;14754
321;14756
320;14758
319;14760
316;14763
312;14765
308;14767
306;14769
306;14771
306;14773
306;14775
306;14777
305;14779
304;14781
301;14783
297;14785
294;14787
293;14789
293;14791
294;14793
295;14795
295;14797
295;14799
294;14801
291;14803
288;14806
286;14808
286;14810
287;14812
288;14814
289;14816
289;14818
289;14820
288;14822
285;14824
283;14826
282;14828
282;14830
284;14832
285;14834
286;14836
287;14838
287;14840
286;14842
283;14844
281;14846
280;14848
281;14850
282;14852
284;14854
286;14856
287;14858
287;14860
286;14862
284;14864
282;14866
281;14868
282;14870
284;14872
285;14874
287;14876
288;14878
289;14880
287;14882
285;14884
283;14886
283;14888
284;14891
286;14893
287;14895
289;14897
290;14899
290;14901
289;14903
287;14905
285;14907
285;14909
287;14911
289;14913
290;14915
292;14917
293;14919
293;14921
291;14923
289;14925
288;14927
288;14929
290;14931
292;14934
293;14936
295;14938
296;14940
296;14942
294;14944
293;14946
291;14948
292;14950
294;14952
295;14954
297;14956
299;14958
299;14960
299;14962
296;14964
295;14966
294;14968
295;14970
297;14972
299;14974
300;14976
301;14978
302;14980
302;14982
300;14984
298;14986
297;14988
297;14990
299;14992
300;14994
301;14996
303;14998
303;15000
302;15002
299;15004
297;15006
296;15008
296;15010
298;15012
299;15014
300;15016
301;15019
301;15021
299;15023
297;15025
294;15027
293;15029
294;15031
295;15033
297;15035
297;15037
298;15039
297;15041
295;15043
292;15045
290;15047
289;15049
290;15051
292;15053
293;15055
294;15057
294;15059
293;15062
291;15064
288;15066
286;15068
286;15070
287;15072
289;15074
290;15076
291;15078
291;15080
291;15082
288;15084
286;15086
285;15088
285;15090
287;15092
288;15094
290;15096
291;15098
291;15100
290;15102
289;15104
287;15106
285;15108
285;15110
286;15112
288;15114
290;15116
291;15118
292;15120
291;15122
289;15124
287;15126
286;15128
286;15130
288;15132
290;15134
291;15136
292;15138
293;15140
292;15142
290;15144
288;15147
287;15149
288;15151
290;15153
291;15155
293;15157
294;15159
294;15161
292;15163
290;15165
288;15167
288;15169
289;15171
290;15173
292;15175
294;15177
294;15179
295;15181
293;15183
290;15185
288;15187
288;15190
290;15192
291;15194
293;15196
294;15198
295;15200
294;15202
292;15204
290;15206
289;15208
289;15210
290;15212
292;15214
293;15216
294;15218
295;15220
294;15222
291;15224
290;15226
288;15228
289;15230
290;15232
291;15234
293;15236
294;15238
295;15240
295;15242
293;15244
290;15246
289;15248
289;15250
290;15252
292;15254
294;15256
295;15258
296;15260
295;15262
293;15264
291;15266
289;15268
289;15270
291;15272
293;15275
295;15277
296;15279
296;15281
295;15283
293;15285
291;15287
290;15289
291;15291
293;15293
295;15295
296;15297
297;15299
298;15301
296;15303
294;15305
292;15307
293;15309
294;15311
296;15313
298;15315
300;15318
301;15320
301;15322
299;15324
297;15326
295;15328
295;15330
297;15332
298;15334
300;15336
301;15338
302;15340
301;15342
298;15344
296;15346
294;15348
294;15350
295;15352
297;15354
298;15356
299;15358
299;15360
299;15362
297;15364
294;15366
292;15368
292;15370
293;15372
295;15374
296;15376
297;15378
298;15380
297;15382
295;15384
293;15386
291;15388
291;15390
293;15392
294;15394
296;15396
297;15398
297;15400
296;15403
294;15405
292;15407
291;15409
291;15411
293;15413
294;15415
296;15417
296;15419
296;15421
294;15423
290;15425
287;15427
284;15429
283;15431
283;15433
284;15435
285;15437
286;15439
288;15441
290;15443
292;15446
296;15448
303;15450
311;15452
321;15454
330;15456
338;15458
345;15460
349;15462
350;15464
348;15466
345;15468
342;15470
342;15472
340;15474
338;15476
336;15478
334;15480
331;15482
327;15484
322;15486
320;15488
319;15490
319;15492
319;15494
318;15496
318;15498
317;15500
316;15502
313;15504
309;15506
306;15508
304;15510
304;15512
304;15514
305;15516
305;15518
304;15520
303;15522
300;15524
297;15526
295;15528
294;15531
295;15533
296;15535
296;15537
297;15539
297;15541
296;15543
293;15545
290;15547
288;15549
289;15551
290;15553
291;15555
292;15557
293;15559
293;15561
291;15563
289;15565
287;15567
286;15569
287;15571
288;15574
290;15576
291;15578
292;15580
292;15582
290;15584
288;15586
285;15588
286;15590
287;15592
289;15594
290;15596
291;15598
292;15600
292;15602
290;15604
288;15606
286;15608
286;15610
288;15612
290;15614
291;15616
292;15618
293;15620
293;15622
292;15624
290;15626
288;15628
288;15630
289;15632
291;15634
293;15636
294;15638
295;15640
295;15642
294;15644
292;15646
290;15648
290;15650
292;15652
293;15654
295;15656
297;15659
298;15661
297;15663
296;15665
293;15667
292;15669
293;15671
295;15673
297;15675
298;15677
300;15679
301;15681
300;15683
298;15685
296;15687
296;15689
296;15691
299;15693
300;15695
302;15697
303;15699
303;15702
303;15704
300;15706
298;15708
298;15710
299;15712
301;15714
303;15716
304;15718
305;15720
305;15722
304;15724
301;15726
299;15728
299;15730
300;15732
301;15734
302;15736
303;15738
303;15740
303;15742
302;15744
300;15746
297;15748
296;15750
297;15752
298;15754
299;15756
300;15758
300;15760
300;15762
298;15764
295;15766
293;15768
292;15770
293;15772
294;15774
295;15776
297;15778
297;15780
297;15782
294;15784
292;15787
290;15789
289;15791
291;15793
292;15795
293;15797
294;15799
295;15801
294;15803
291;15805
289;15807
288;15809
288;15811
289;15813
291;15815
292;15817
294;15819
294;15821
293;15823
291;15825
288;15827
288;15830
288;15832
290;15834
292;15836
293;15838
294;15840
294;15842
293;15844
291;15846
289;15848
288;15850
290;15852
291;15854
293;15856
295;15858
295;15860
296;15862
294;15864
292;15866
290;15868
290;15870
290;15872
292;15874
293;15876
295;15878
296;15880
297;15882
296;15884
293;15886
291;15888
290;15890
291;15892
293;15894
294;15896
296;15898
297;15900
297;15902
295;15904
293;15906
291;15908
291;15910
292;15912
293;15915
295;15917
296;15919
297;15921
297;15923
295;15925
293;15927
291;15929
291;15931
293;15933
294;15935
295;15937
297;15939
297;15941
297;15943
294;15945
292;15947
291;15949
291;15951
293;15953
295;15955
296;15958
297;15960
298;15962
297;15964
294;15966
292;15968
291;15970
292;15972
294;15974
295;15976
296;15978
298;15980
298;15982
296;15984
294;15986
292;15988
291;15990
293;15992
294;15994
296;15996
297;15998
298;16000
298;16002
297;16004
295;16006
293;16008
292;16010
293;16012
294;16014
296;16016
297;16018
298;16020
299;16022
298;16024
295;16026
293;16028
293;16030
294;16032
296;16034
298;16036
299;16038
300;16040
300;16043
299;16045
297;16047
295;16049
295;16051
297;16053
299;16055
301;16057
303;16059
304;16061
304;16063
302;16065
299;16067
298;16069
298;16071
300;16073
301;16075
303;16077
304;16079
304;16081
303;16083
301;16086
298;16088
296;16090
297;16092
298;16094
299;16096
300;16098
301;16100
301;16102
300;16104
297;16106
295;16108
294;16110
294;16112
296;16114
297;16116
299;16118
299;16120
299;16122
297;16124
295;16126
294;16128
293;16130
293;16132
294;16134
296;16136
297;16138
298;16140
299;16142
297;16144
295;16146
293;16148
292;16150
293;16152
294;16154
296;16156
297;16158
298;16160
297;16162
295;16164
291;16166
287;16168
285;16171
285;16173
284;16175
285;16177
285;16179
287;16181
288;16183
290;16185
293;16187
297;16189
304;16191
314;16193
324;16195
335;16197
344;16199
353;16201
358;16203
361;16205
361;16207
360;16209
358;16211
357;16214
355;16216
353;16218
351;16220
349;16222
345;16224
341;16226
337;16228
333;16230
332;16232
332;16234
331;16236
330;16238
329;16240
327;16242
324;16244
319;16246
315;16248
312;16250
311;16252
311;16254
311;16256
311;16258
310;16260
309;16262
307;16264
304;16266
300;16268
297;16270
297;16272
297;16274
298;16276
298;16278
298;16280
298;16282
295;16284
292;16286
289;16288
288;16290
288;16292
289;16294
290;16296
291;16299
291;16301
291;16303
289;16305
287;16307
284;16309
283;16311
285;16313
285;16315
287;16317
288;16319
289;16321
288;16323
287;16325
284;16327
282;16329
282;16331
284;16333
285;16335
286;16337
288;16339
289;16342
288;16344
286;16346
284;16348
282;16350
283;16352
285;16354
286;16356
288;16358
289;16360
290;16362
289;16364
287;16366
285;16368
284;16370
285;16372
287;16374
288;16376
290;16378
291;16380
292;16382
291;16384
290;16386
287;16388
286;16390
287;16392
289;16394
290;16396
292;16398
293;16400
294;16402
293;16404
292;16406
290;16408
288;16410
290;16412
291;16414
293;16416
295;16418
296;16420
297;16422
296;16424
294;16427
292;16429
291;16431
293;16433
294;16435
296;16437
298;16439
299;16441
299;16443
297;16445
296;16447
293;16449
293;16451
295;16453
297;16455
298;16457
300;16459
300;16461
301;16463
298;16465
296;16467
294;16470
294;16472
296;16474
297;16476
299;16478
300;16480
301;16482
300;16484
297;16486
295;16488
293;16490
294;16492
295;16494
296;16496
298;16498
298;16500
299;16502
298;16504
295;16506
293;16508
292;16510
291;16512
293;16514
294;16516
295;16518
296;16520
297;16522
296;16524
294;16526
291;16528
290;16530
290;16532
291;16534
293;16536
294;16538
295;16540
295;16542
294;16544
292;16546
290;16548
288;16550
289;16552
290;16555
292;16557
294;16559
294;16561
294;16563
293;16565
291;16567
289;16569
288;16571
289;16573
291;16575
293;16577
294;16579
295;16581
295;16583
293;16585
291;16587
289;16589
289;16591
290;16593
292;16595
294;16598
296;16600
296;16602
296;16604
294;16606
292;16608
290;16610
291;16612
293;16614
294;16616
296;16618
297;16620
298;16622
297;16624
295;16626
293;16628
291;16630
292;16632
294;16634
296;16636
297;16638
298;16640
299;16642
299;16644
297;16646
294;16648
293;16650
293;16652
294;16654
296;16656
298;16658
299;16660
299;16662
299;16664
297;16666
294;16668
293;16670
294;16672
295;16674
297;16676
298;16678
300;16680
300;16683
299;16685
297;16687
294;16689
293;16691
294;16693
295;16695
297;16697
299;16699
300;16701
300;16703
298;16705
296;16707
294;16709
293;16711
294;16713
296;16715
298;16717
299;16719
299;16721
299;16723
298;16726
295;16728
293;16730
293;16732
294;16734
296;16736
297;16738
299;16740
299;16742
299;16744
297;16746
294;16748
293;16750
293;16752
295;16754
296;16756
297;16758
298;16760
299;16762
298;16764
296;16766
295;16768
293;16770
293;16772
294;16774
295;16776
297;16778
298;16780
299;16782
298;16784
297;16786
294;16788
292;16790
292;16792
294;16794
295;16796
297;16798
298;16800
299;16802
298;16804
296;16806
294;16808
292;16811
293;16813
294;16815
296;16817
298;16819
299;16821
300;16823
298;16825
296;16827
294;16829
294;16831
295;16833
296;16835
297;16837
299;16839
300;16841
301;16843
300;16845
298;16847
296;16849
296;16851
298;16854
299;16856
302;16858
304;16860
304;16862
304;16864
303;16866
301;16868
299;16870
299;16872
300;16874
301;16876
303;16878
304;16880
305;16882
304;16884
302;16886
299;16888
297;16890
297;16892
298;16894
298;16896
300;16898
301;16900
302;16902
301;16904
299;16906
297;16908
294;16910
294;16912
295;16914
296;16916
298;16918
299;16920
299;16922
299;16924
297;16926
294;16928
292;16930
293;16932
294;16934
295;16936
297;16939
298;16941
299;16943
297;16945
295;16947
293;16949
292;16951
292;16953
293;16955
295;16957
296;16959
297;16961
297;16963
295;16965
291;16967
287;16969
285;16971
284;16973
284;16975
283;16977
284;16979
285;16982
286;16984
287;16986
289;16988
292;16990
299;16992
308;16994
319;16996
329;16998
340;17000
350;17002
358;17004
362;17006
363;17008
363;17010
362;17012
362;17014
360;17016
358;17018
357;17020
354;17022
353;17024
349;17026
344;17028
340;17030
338;17032
336;17034
335;17036
334;17038
333;17040
331;17042
329;17044
324;17046
320;17048
316;17050
314;17052
313;17054
312;17056
312;17058
311;17060
310;17062
308;17064
304;17067
300;17069
297;17071
296;17073
296;17075
296;17077
297;17079
296;17081
296;17083
294;17085
291;17087
288;17089
286;17091
286;17093
286;17095
287;17097
288;17099
288;17101
288;17103
286;17105
284;17107
281;17110
280;17112
281;17114
282;17116
283;17118
284;17120
285;17122
285;17124
283;17126
280;17128
278;17130
278;17132
279;17134
280;17136
282;17138
283;17140
284;17142
283;17144
282;17146
280;17148
278;17150
277;17152
279;17154
280;17156
282;17158
283;17160
284;17162
285;17164
283;17166
281;17168
279;17170
279;17172
280;17174
282;17176
283;17178
285;17180
286;17182
286;17184
284;17186
282;17188
281;17190
281;17192
282;17195
284;17197
286;17199
287;17201
288;17203
288;17205
286;17207
284;17209
283;17211
283;17213
285;17215
287;17217
289;17219
290;17221
291;17223
290;17225
288;17227
286;17229
285;17231
287;17233
288;17235
290;17238
292;17240
293;17242
293;17244
293;17246
291;17248
289;17250
288;17252
289;17254
291;17256
293;17258
294;17260
296;17262
296;17264
294;17266
292;17268
290;17270
290;17272
291;17274
293;17276
294;17278
295;17280
296;17282
297;17284
295;17286
293;17288
291;17290
290;17292
290;17294
292;17296
293;17298
295;17300
296;17302
296;17304
294;17306
291;17308
289;17310
289;17312
290;17314
291;17316
292;17318
294;17320
294;17323
294;17325
292;17327
289;17329
287;17331
287;17333
288;17335
290;17337
291;17339
293;17341
293;17343
292;17345
290;17347
287;17349
286;17351
286;17353
288;17355
289;17357
290;17359
291;17361
292;17363
291;17366
289;17368
287;17370
286;17372
286;17374
288;17376
290;17378
291;17380
293;17382
293;17384
291;17386
289;17388
287;17390
287;17392
288;17394
290;17396
291;17398
293;17400
294;17402
294;17404
293;17406
291;17408
289;17410
288;17412
289;17414
291;17416
293;17418
294;17420
295;17422
296;17424
295;17426
293;17428
291;17430
290;17432
291;17434
293;17436
295;17438
296;17440
297;17442
297;17444
296;17446
294;17448
292;17451
291;17453
293;17455
295;17457
296;17459
298;17461
298;17463
298;17465
296;17467
294;17469
292;17471
292;17473
294;17475
295;17477
297;17479
298;17481
298;17483
298;17485
296;17487
293;17489
291;17491
293;17494
294;17496
295;17498
297;17500
298;17502
298;17504
297;17506
295;17508
292;17510
292;17512
292;17514
294;17516
295;17518
297;17520
298;17522
298;17524
297;17526
294;17528
292;17530
292;17532
293;17534
294;17536
295;17538
296;17540
298;17542
298;17544
297;17546
294;17548
292;17550
291;17552
292;17554
293;17556
295;17558
296;17560
297;17562
298;17564
296;17566
294;17568
291;17570
291;17572
291;17574
293;17576
294;17579
296;17581
297;17583
297;17585
295;17587
292;17589
290;17591
290;17593
292;17595
293;17597
295;17599
296;17601
296;17603
296;17605
294;17607
291;17609
290;17611
290;17613
292;17615
293;17617
294;17619
295;17622
296;17624
295;17626
293;17628
291;17630
290;17632
291;17634
292;17636
293;17638
295;17640
297;17642
297;17644
296;17646
294;17648
292;17650
292;17652
293;17654
294;17656
296;17658
297;17660
298;17662
299;17664
298;17666
296;17668
295;17670
293;17672
294;17674
296;17676
298;17678
300;17680
302;17682
302;17684
301;17686
299;17688
297;17690
296;17692
297;17694
299;17696
300;17698
301;17700
301;17702
302;17704
300;17707
297;17709
294;17711
294;17713
294;17715
296;17717
297;17719
298;17721
299;17723
298;17725
296;17727
294;17729
291;17731
291;17733
292;17735
294;17737
295;17739
296;17741
296;17743
296;17745
294;17747
291;17750
290;17752
289;17754
291;17756
293;17758
294;17760
295;17762
296;17764
294;17766
292;17768
290;17770
289;17772
289;17774
291;17776
292;17778
294;17780
295;17782
295;17784
293;17786
289;17788
286;17790
285;17792
283;17794
283;17796
283;17798
283;17800
282;17802
283;17804
282;17806
282;17808
284;17810
288;17812
295;17814
304;17816
314;17818
325;17820
336;17822
345;17824
353;17826
357;17828
359;17830
361;17832
362;17835
362;17837
360;17839
359;17841
357;17843
354;17845
350;17847
345;17849
341;17851
338;17853
337;17855
337;17857
335;17859
334;17861
332;17863
330;17865
325;17867
321;17869
316;17871
314;17873
314;17875
313;17878
313;17880
312;17882
310;17884
308;17886
304;17888
300;17890
298;17892
296;17894
297;17896
296;17898
297;17900
297;17902
296;17904
294;17906
291;17908
288;17910
285;17912
285;17914
286;17916
287;17918
287;17920
288;17922
288;17924
287;17926
284;17928
281;17930
279;17932
279;17934
280;17936
281;17938
283;17940
283;17942
284;17944
282;17946
280;17948
278;17950
276;17952
277;17954
278;17956
280;17958
281;17960
282;17963
282;17965
281;17967
279;17969
277;17971
276;17973
277;17975
279;17977
280;17979
282;17981
282;17983
283;17985
281;17987
279;17989
277;17991
277;17993
278;17995
280;17997
282;17999
283;18001
284;18003
284;18006
282;18008
280;18010
279;18012
279;18014
280;18016
282;18018
284;18020
285;18022
286;18024
285;18026
283;18028
281;18030
280;18032
281;18034
283;18036
284;18038
286;18040
287;18042
288;18044
287;18046
286;18048
284;18050
282;18052
283;18054
284;18056
286;18058
288;18060
289;18062
290;18064
290;18066
288;18068
286;18070
285;18072
285;18074
287;18076
289;18078
291;18080
292;18082
292;18084
292;18086
290;18088
288;18091
287;18093
288;18095
289;18097
291;18099
292;18101
293;18103
293;18105
292;18107
290;18109
288;18111
287;18113
288;18115
289;18117
291;18119
292;18121
292;18123
292;18125
291;18127
288;18129
286;18131
286;18134
287;18136
288;18138
290;18140
291;18142
292;18144
291;18146
289;18148
286;18150
285;18152
285;18154
286;18156
287;18158
289;18160
289;18162
290;18164
289;18166
287;18168
284;18170
283;18172
283;18174
284;18176
286;18178
287;18180
288;18182
289;18184
289;18186
287;18188
285;18190
283;18192
283;18194
284;18196
286;18198
288;18200
289;18202
290;18204
289;18206
287;18208
285;18210
284;18212
284;18214
286;18216
287;18219
289;18221
290;18223
291;18225
290;18227
288;18229
286;18231
285;18233
286;18235
288;18237
289;18239
291;18241
292;18243
292;18245
291;18247
289;18249
287;18251
286;18253
288;18255
289;18257
291;18259
292;18262
294;18264
294;18266
292;18268
290;18270
288;18272
287;18274
289;18276
291;18278
292;18280
294;18282
294;18284
294;18286
292;18288
290;18290
288;18292
288;18294
290;18296
291;18298
293;18300
294;18302
294;18304
294;18306
293;18308
291;18310
288;18312
288;18314
290;18316
291;18318
292;18320
294;18322
295;18324
294;18326
292;18328
290;18330
288;18332
288;18334
290;18336
291;18338
293;18340
294;18342
295;18344
294;18347
292;18349
289;18351
288;18353
288;18355
290;18357
292;18359
293;18361
294;18363
295;18365
293;18367
291;18369
289;18371
288;18373
289;18375
290;18377
292;18379
293;18381
294;18383
294;18385
293;18387
291;18390
289;18392
288;18394
289;18396
290;18398
292;18400
294;18402
294;18404
294;18406
293;18408
291;18410
288;18412
289;18414
290;18416
291;18418
293;18420
294;18422
295;18424
294;18426
292;18428
290;18430
289;18432
288;18434
289;18436
291;18438
292;18440
294;18442
294;18444
295;18446
293;18448
290;18450
289;18452
288;18454
290;18456
291;18458
293;18460
294;18462
295;18464
294;18466
292;18468
290;18470
288;18472
288;18475
290;18477
292;18479
293;18481
294;18483
295;18485
294;18487
292;18489
290;18491
288;18493
289;18495
291;18497
293;18499
294;18501
295;18503
296;18505
295;18507
293;18509
290;18511
290;18513
290;18515
292;18518
294;18520
296;18522
297;18524
298;18526
297;18528
295;18530
293;18532
293;18534
295;18536
296;18538
298;18540
299;18542
300;18544
300;18546
298;18548
296;18550
293;18552
293;18554
295;18556
296;18558
296;18560
297;18562
298;18564
298;18566
296;18568
294;18570
291;18572
291;18574
291;18576
293;18578
294;18580
295;18582
296;18584
296;18586
294;18588
291;18590
289;18592
289;18594
290;18596
291;18598
293;18600
294;18603
295;18605
294;18607
292;18609
289;18611
287;18613
288;18615
289;18617
291;18619
292;18621
293;18623
294;18625
293;18627
291;18629
289;18631
287;18633
288;18635
289;18637
290;18639
291;18641
290;18643
289;18646
286;18648
282;18650
278;18652
276;18654
276;18656
278;18658
281;18660
285;18662
290;18664
296;18666
301;18668
307;18670
312;18672
321;18674
330;18676
338;18678
346;18680
351;18682
353;18684
353;18686
351;18688
347;18690
342;18692
338;18694
336;18696
334;18698
333;18700
332;18702
330;18704
329;18706
325;18708
322;18710
318;18712
315;18714
315;18716
314;18718
314;18720
313;18722
312;18724
310;18726
307;18728
303;18731
300;18733
298;18735
298;18737
299;18739
299;18741
298;18743
298;18745
297;18747
293;18749
290;18751
288;18753
287;18755
288;18757
289;18759
289;18761
290;18763
290;18765
288;18767
285;18769
283;18771
281;18774
281;18776
282;18778
283;18780
285;18782
286;18784
286;18786
284;18788
281;18790
279;18792
278;18794
280;18796
281;18798
282;18800
283;18802
284;18804
284;18806
282;18808
280;18810
278;18812
278;18814
279;18816
280;18818
282;18820
283;18822
284;18824
285;18826
284;18828
282;18830
280;18832
279;18834
280;18836
282;18838
284;18840
286;18842
286;18844
287;18846
285;18848
283;18850
282;18852
281;18854
283;18856
285;18859
286;18861
288;18863
289;18865
289;18867
287;18869
285;18871
284;18873
284;18875
286;18877
288;18879
289;18881
290;18883
292;18885
292;18887
290;18889
288;18891
287;18893
287;18895
289;18897
291;18899
293;18902
294;18904
295;18906
294;18908
293;18910
291;18912
290;18914
291;18916
293;18918
295;18920
297;18922
297;18924
298;18926
297;18928
294;18930
293;18932
293;18934
294;18936
296;18938
297;18940
299;18942
300;18944
300;18946
299;18948
298;18950
295;18952
294;18954
294;18956
296;18958
297;18960
298;18962
299;18964
299;18966
298;18968
295;18970
293;18972
292;18974
293;18976
294;18978
295;18980
296;18982
297;18984
296;18987
294;18989
291;18991
289;18993
288;18995
290;18997
291;18999
292;19001
293;19003
293;19005
293;19007
290;19009
288;19011
286;19013
286;19015
287;19017
289;19019
289;19021
291;19023
291;19025
290;19027
288;19030
285;19032
284;19034
284;19036
286;19038
288;19040
289;19042
290;19044
291;19046
289;19048
287;19050
285;19052
284;19054
285;19056
287;19058
288;19060
290;19062
291;19064
291;19066
290;19068
288;19070
287;19072
285;19074
286;19076
288;19078
289;19080
291;19082
292;19084
293;19086
292;19088
290;19090
288;19092
287;19094
288;19096
289;19098
291;19100
293;19102
294;19104
294;19106
293;19108
291;19110
288;19112
288;19115
289;19117
291;19119
292;19121
294;19123
295;19125
295;19127
293;19129
291;19131
289;19133
289;19135
290;19137
292;19139
293;19141
295;19143
295;19145
295;19147
293;19149
291;19151
289;19153
289;19155
291;19158
292;19160
294;19162
295;19164
296;19166
295;19168
292;19170
290;19172
289;19174
289;19176
291;19178
292;19180
294;19182
295;19184
295;19186
294;19188
292;19190
290;19192
289;19194
290;19196
291;19198
292;19200
293;19202
295;19204
295;19206
294;19208
292;19210
290;19212
289;19214
289;19216
291;19218
292;19220
293;19222
294;19224
295;19226
294;19228
292;19230
289;19232
289;19234
290;19236
291;19238
293;19240
294;19243
294;19245
295;19247
294;19249
291;19251
289;19253
289;19255
290;19257
291;19259
293;19261
294;19263
295;19265
295;19267
293;19269
291;19271
289;19273
289;19275
290;19277
292;19279
293;19281
295;19283
295;19286
295;19288
293;19290
291;19292
289;19294
290;19296
291;19298
293;19300
295;19302
296;19304
297;19306
296;19308
294;19310
292;19312
291;19314
292;19316
293;19318
295;19320
297;19322
298;19324
299;19326
299;19328
297;19330
296;19332
294;19334
295;19336
297;19338
298;19340
300;19342
301;19344
302;19346
301;19348
299;19350
297;19352
295;19354
296;19356
297;19358
298;19360
299;19362
300;19364
300;19366
299;19368
296;19371
294;19373
293;19375
294;19377
295;19379
296;19381
298;19383
298;19385
298;19387
296;19389
294;19391
291;19393
291;19395
292;19397
294;19399
295;19401
296;19403
297;19405
296;19407
295;19409
292;19411
290;19414
290;19416
291;19418
293;19420
294;19422
295;19424
296;19426
295;19428
294;19430
291;19432
290;19434
290;19436
291;19438
292;19440
292;19442
292;19444
291;19446
288;19448
285;19450
281;19452
279;19454
279;19456
280;19458
282;19460
286;19462
291;19464
297;19466
303;19468
308;19470
314;19472
321;19474
329;19476
337;19478
345;19480
351;19482
354;19484
355;19486
352;19488
347;19490
343;19492
338;19494
336;19496
334;19499
333;19501
332;19503
331;19505
329;19507
326;19509
322;19511
319;19513
316;19515
315;19517
315;19519
315;19521
315;19523
314;19525
313;19527
309;19529
306;19531
302;19533
301;19535
301;19537
302;19539
301;19542
302;19544
302;19546
300;19548
297;19550
294;19552
292;19554
291;19556
292;19558
293;19560
294;19562
294;19564
294;19566
293;19568
291;19570
288;19572
286;19574
286;19576
287;19578
288;19580
290;19582
290;19584
291;19586
291;19588
288;19590
286;19592
284;19594
284;19596
285;19598
287;19600
288;19602
289;19604
290;19606
289;19608
287;19610
285;19612
283;19614
284;19616
286;19618
287;19620
289;19622
290;19624
291;19627
290;19629
287;19631
286;19633
285;19635
285;19637
287;19639
289;19641
290;19643
292;19645
292;19647
291;19649
289;19651
287;19653
287;19655
288;19657
289;19659
291;19661
293;19663
294;19665
294;19667
293;19670
291;19672
289;19674
289;19676
290;19678
292;19680
294;19682
295;19684
297;19686
296;19688
295;19690
293;19692
291;19694
292;19696
294;19698
295;19700
297;19702
299;19704
300;19706
299;19708
298;19710
296;19712
295;19714
295;19716
296;19718
298;19720
300;19722
301;19724
303;19726
303;19728
301;19730
299;19732
297;19734
298;19736
299;19738
301;19740
303;19742
304;19744
305;19746
304;19748
302;19750
299;19752
298;19755
298;19757
299;19759
301;19761
302;19763
303;19765
303;19767
302;19769
299;19771
297;19773
295;19775
296;19777
297;19779
298;19781
299;19783
300;19785
300;19787
298;19789
295;19791
292;19793
292;19795
292;19798
294;19800
295;19802
296;19804
296;19806
296;19808
294;19810
291;19812
289;19814
289;19816
290;19818
291;19820
292;19822
293;19824
294;19826
294;19828
291;19830
289;19832
287;19834
287;19836
288;19838
289;19840
291;19842
292;19844
293;19846
293;19848
291;19850
289;19852
287;19854
287;19856
288;19858
290;19860
292;19862
293;19864
294;19866
293;19868
292;19870
289;19872
288;19874
288;19876
290;19878
292;19880
293;19883
294;19885
295;19887
294;19889
292;19891
290;19893
289;19895
289;19897
291;19899
293;19901
295;19903
296;19905
296;19907
295;19909
293;19911
291;19913
290;19915
291;19917
293;19919
294;19921
296;19923
297;19926
297;19928
296;19930
293;19932
291;19934
291;19936
292;19938
293;19940
295;19942
296;19944
298;19946
297;19948
295;19950
293;19952
292;19954
291;19956
293;19958
294;19960
295;19962
297;19964
297;19966
297;19968
296;19970
294;19972
292;19974
291;19976
292;19978
294;19980
295;19982
297;19984
298;19986
298;19988
296;19990
293;19992
292;19994
291;19996
293;19998
294;20000
296;20002
297;20004
298;20006
298;20008
295;20011
293;20013
292;20015
292;20017
293;20019
295;20021
296;20023
298;20025
298;20027
297;20029
295;20031
293;20033
292;20035
292;20037
294;20039
295;20041
297;20043
298;20045
298;20047
297;20049
295;20051
292;20054
292;20056
293;20058
294;20060
296;20062
297;20064
298;20066
298;20068
297;20070
295;20072
292;20074
292;20076
294;20078
295;20080
297;20082
298;20084
299;20086
299;20088
297;20090
295;20092
294;20094
293;20096
294;20098
296;20100
298;20102
299;20104
301;20106
301;20108
299;20110
297;20112
295;20114
296;20116
297;20118
299;20120
301;20122
303;20124
304;20126
304;20128
303;20130
301;20132
299;20134
299;20136
300;20139
302;20141
303;20143
304;20145
305;20147
305;20149
302;20151
300;20153
298;20155
298;20157
299;20159
300;20161
301;20163
302;20165
302;20167
301;20169
299;20171
296;20173
295;20175
295;20177
297;20179
299;20182
299;20184
300;20186
301;20188
299;20190
297;20192
294;20194
293;20196
294;20198
296;20200
297;20202
299;20204
299;20206
300;20208
298;20210
295;20212
293;20214
293;20216
294;20218
295;20220
297;20222
298;20224
299;20226
299;20228
298;20230
295;20232
292;20234
290;20236
289;20238
290;20240
289;20242
289;20244
289;20246
288;20248
285;20250
284;20252
284;20254
288;20256
294;20258
302;20260
312;20262
321;20264
331;20267
340;20269
347;20271
352;20273
357;20275
361;20277
364;20279
365;20281
364;20283
362;20285
360;20287
356;20289
351;20291
346;20293
342;20295
341;20297
340;20299
339;20301
338;20303
337;20305
335;20307
332;20310
328;20312
323;20314
320;20316
319;20318
318;20320
318;20322
317;20324
316;20326
315;20328
312;20330
308;20332
304;20334
302;20336
302;20338
302;20340
302;20342
303;20344
302;20346
301;20348
298;20350
297;20352
294;20354
292;20356
292;20358
292;20360
293;20362
294;20364
294;20366
294;20368
293;20370
290;20372
288;20374
286;20376
286;20378
288;20380
289;20382
290;20384
291;20386
291;20388
289;20390
287;20392
284;20395
284;20397
285;20399
287;20401
288;20403
289;20405
290;20407
290;20409
288;20411
285;20413
284;20415
284;20417
286;20419
287;20421
288;20423
290;20425
291;20427
290;20429
288;20431
286;20433
284;20435
285;20438
287;20440
289;20442
290;20444
291;20446
292;20448
291;20450
289;20452
287;20454
286;20456
287;20458
288;20460
290;20462
292;20464
293;20466
294;20468
292;20470
290;20472
289;20474
288;20476
289;20478
290;20480
292;20482
294;20484
295;20486
296;20488
295;20490
293;20492
291;20494
290;20496
291;20498
293;20500
294;20502
296;20504
297;20506
298;20508
296;20510
294;20512
293;20514
292;20516
293;20518
295;20520
297;20523
298;20525
299;20527
300;20529
298;20531
296;20533
294;20535
294;20537
295;20539
296;20541
298;20543
299;20545
300;20547
299;20549
298;20551
295;20553
293;20555
293;20557
295;20559
296;20561
298;20563
298;20566
299;20568
298;20570
296;20572
293;20574
292;20576
292;20578
294;20580
295;20582
296;20584
297;20586
297;20588
296;20590
294;20592
291;20594
290;20596
291;20598
292;20600
294;20602
295;20604
296;20606
296;20608
295;20610
293;20612
291;20614
289;20616
290;20618
291;20620
293;20622
294;20624
295;20626
295;20628
294;20630
293;20632
290;20634
289;20636
290;20638
292;20640
293;20642
295;20644
295;20646
296;20648
295;20651
293;20653
291;20655
290;20657
292;20659
293;20661
295;20663
296;20665
297;20667
298;20669
296;20671
293;20673
292;20675
292;20677
293;20679
295;20681
297;20683
298;20685
299;20687
299;20689
297;20691
295;20694
293;20696
294;20698
295;20700
297;20702
298;20704
300;20706
301;20708
300;20710
298;20712
296;20714
295;20716
295;20718
297;20720
299;20722
300;20724
301;20726
302;20728
301;20730
298;20732
296;20734
295;20736
296;20738
297;20740
298;20742
300;20744
301;20746
302;20748
301;20750
299;20752
297;20754
295;20756
295;20758
297;20760
299;20762
300;20764
301;20766
302;20768
301;20770
299;20772
296;20774
295;20776
296;20779
297;20781
299;20783
300;20785
301;20787
301;20789
300;20791
297;20793
295;20795
295;20797
296;20799
297;20801
299;20803
300;20805
301;20807
301;20809
300;20811
297;20813
295;20815
295;20817
296;20819
298;20822
299;20824
301;20826
301;20828
301;20830
299;20832
296;20834
295;20836
295;20838
296;20840
298;20842
299;20844
300;20846
301;20848
300;20850
298;20852
296;20854
295;20856
295;20858
296;20860
298;20862
298;20864
300;20866
301;20868
300;20870
298;20872
296;20874
294;20876
294;20878
296;20880
297;20882
298;20884
300;20886
300;20888
299;20890
297;20892
295;20894
294;20896
294;20898
296;20900
297;20902
299;20904
300;20907
300;20909
299;20911
297;20913
295;20915
294;20917
296;20919
297;20921
299;20923
301;20925
301;20927
302;20929
300;20931
298;20933
296;20935
296;20937
298;20939
299;20941
302;20943
304;20945
304;20947
305;20950
303;20952
301;20954
299;20956
299;20958
301;20960
302;20962
304;20964
305;20966
306;20968
305;20970
303;20972
300;20974
298;20976
298;20978
299;20980
301;20982
302;20984
302;20986
302;20988
302;20990
300;20992
298;20994
295;20996
295;20998
296;21000
297;21002
298;21004
300;21006
301;21008
300;21010
298;21012
295;21014
293;21016
293;21018
295;21020
296;21022
297;21024
298;21026
299;21028
298;21030
296;21032
293;21035
292;21037
292;21039
294;21041
295;21043
297;21045
298;21047
298;21049
297;21051
294;21053
291;21055
290;21057
289;21059
289;21061
289;21063
288;21065
288;21067
286;21069
284;21071
281;21073
281;21075
283;21078
289;21080
297;21082
305;21084
315;21086
325;21088
334;21090
342;21092
349;21094
355;21096
360;21098
365;21100
368;21102
368;21104
367;21106
365;21108
361;21110
356;21112
351;21114
347;21116
345;21118
344;21120
344;21122
343;21124
342;21126
340;21128
337;21130
333;21132
328;21134
324;21136
321;21138
321;21140
320;21142
319;21144
318;21146
317;21148
314;21150
310;21152
306;21154
303;21156
301;21158
301;21160
301;21163
301;21165
301;21167
300;21169
298;21171
295;21173
291;21175
289;21177
289;21179
289;21181
290;21183
291;21185
291;21187
290;21189
288;21191
285;21193
283;21195
282;21197
282;21199
283;21201
284;21203
285;21206
286;21208
286;21210
284;21212
281;21214
279;21216
278;21218
279;21220
281;21222
282;21224
283;21226
284;21228
284;21230
282;21232
280;21234
278;21236
278;21238
280;21240
281;21242
283;21244
284;21246
285;21248
285;21250
283;21252
281;21254
279;21256
279;21258
280;21260
282;21262
283;21264
285;21266
286;21268
286;21270
284;21272
282;21274
280;21276
280;21278
282;21280
284;21282
286;21284
287;21286
288;21288
288;21291
286;21293
284;21295
282;21297
283;21299
285;21301
286;21303
288;21305
290;21307
291;21309
290;21311
288;21313
286;21315
285;21317
286;21319
288;21321
290;21323
291;21325
293;21327
294;21329
293;21331
290;21334
289;21336
288;21338
289;21340
291;21342
293;21344
295;21346
296;21348
296;21350
295;21352
292;21354
291;21356
290;21358
292;21360
294;21362
295;21364
296;21366
297;21368
297;21370
295;21372
292;21374
291;21376
290;21378
292;21380
293;21382
294;21384
296;21386
296;21388
296;21390
294;21392
292;21394
289;21396
289;21398
290;21400
292;21402
293;21404
294;21406
295;21408
294;21410
292;21412
290;21414
288;21416
288;21419
289;21421
290;21423
291;21425
292;21427
293;21429
292;21431
290;21433
287;21435
286;21437
286;21439
287;21441
289;21443
290;21445
291;21447
292;21449
290;21451
288;21453
286;21455
285;21457
286;21459
288;21462
289;21464
290;21466
291;21468
292;21470
290;21472
288;21474
286;21476
286;21478
287;21480
288;21482
290;21484
292;21486
293;21488
293;21490
292;21492
289;21494
288;21496
288;21498
289;21500
291;21502
292;21504
293;21506
295;21508
295;21510
294;21512
292;21514
290;21516
289;21518
291;21520
292;21522
294;21524
296;21526
297;21528
297;21530
295;21532
293;21534
291;21536
291;21538
293;21540
294;21542
296;21544
297;21547
298;21549
298;21551
296;21553
293;21555
292;21557
292;21559
294;21561
295;21563
297;21565
298;21567
299;21569
298;21571
296;21573
293;21575
292;21577
292;21579
294;21581
295;21583
297;21585
298;21587
298;21590
297;21592
295;21594
292;21596
291;21598
292;21600
294;21602
296;21604
297;21606
298;21608
298;21610
296;21612
294;21614
292;21616
291;21618
293;21620
294;21622
295;21624
297;21626
297;21628
297;21630
297;21632
294;21634
292;21636
291;21638
292;21640
293;21642
295;21644
296;21646
298;21648
298;21650
296;21652
294;21654
292;21656
291;21658
292;21660
293;21662
295;21664
296;21666
297;21668
297;21670
295;21672
293;21675
291;21677
291;21679
292;21681
294;21683
295;21685
296;21687
297;21689
297;21691
295;21693
293;21695
291;21697
291;21699
293;21701
294;21703
296;21705
297;21707
298;21709
296;21711
295;21713
292;21715
291;21718
291;21720
293;21722
294;21724
296;21726
297;21728
298;21730
296;21732
294;21734
292;21736
291;21738
292;21740
293;21742
295;21744
296;21746
297;21748
298;21750
296;21752
294;21754
292;21756
291;21758
292;21760
294;21762
295;21764
297;21766
298;21768
299;21770
298;21772
296;21774
294;21776
292;21778
293;21780
295;21782
297;21784
298;21786
300;21788
300;21790
299;21792
297;21794
295;21796
295;21798
297;21800
299;21803
300;21805
302;21807
303;21809
303;21811
301;21813
298;21815
296;21817
296;21819
297;21821
298;21823
299;21825
300;21827
301;21829
300;21831
298;21833
295;21835
293;21837
293;21839
294;21841
296;21843
297;21846
298;21848
298;21850
297;21852
295;21854
292;21856
291;21858
291;21860
292;21862
294;21864
295;21866
296;21868
296;21870
294;21872
292;21874
290;21876
289;21878
290;21880
291;21882
293;21884
294;21886
295;21888
295;21890
294;21892
292;21894
290;21896
288;21898
289;21900
290;21902
292;21904
293;21906
293;21908
292;21910
289;21912
285;21914
281;21916
278;21918
277;21920
278;21922
279;21924
281;21926
285;21928
289;21931
293;21933
298;21935
304;21937
313;21939
324;21941
335;21943
345;21945
355;21947
362;21949
365;21951
365;21953
362;21955
359;21957
356;21959
354;21961
353;21963
351;21965
350;21967
348;21969
345;21971
341;21974
337;21976
333;21978
331;21980
329;21982
328;21984
327;21986
326;21988
324;21990
321;21992
316;21994
312;21996
309;21998
307;22000
307;22002
306;22004
306;22006
305;22008
304;22010
300;22012
297;22014
295;22016
292;22018
291;22020
291;22022
292;22024
292;22026
292;22028
291;22030
289;22032
286;22034
284;22036
282;22038
281;22040
282;22042
283;22044
284;22046
284;22048
284;22050
283;22052
280;22054
277;22056
276;22059
277;22061
278;22063
279;22065
280;22067
281;22069
281;22071
279;22073
277;22075
275;22077
274;22079
275;22081
277;22083
279;22085
280;22087
281;22089
280;22091
279;22093
277;22095
275;22097
275;22099
276;22102
278;22104
279;22106
280;22108
281;22110
281;22112
279;22114
277;22116
275;22118
276;22120
277;22122
279;22124
281;22126
282;22128
283;22130
282;22132
280;22134
277;22136
277;22138
278;22140
279;22142
280;22144
282;22146
283;22148
284;22150
284;22152
282;22154
280;22156
279;22158
279;22160
281;22162
283;22164
284;22166
286;22168
287;22170
286;22172
284;22174
282;22176
282;22178
282;22180
284;22182
286;22184
288;22187
289;22189
289;22191
288;22193
287;22195
285;22197
284;22199
285;22201
287;22203
289;22205
290;22207
292;22209
292;22211
290;22213
288;22215
286;22217
286;22219
287;22221
289;22223
290;22225
291;22227
292;22230
292;22232
290;22234
288;22236
285;22238
285;22240
287;22242
288;22244
289;22246
291;22248
291;22250
290;22252
288;22254
286;22256
284;22258
284;22260
286;22262
287;22264
288;22266
289;22268
290;22270
289;22272
287;22274
285;22276
282;22278
282;22280
283;22282
285;22284
286;22286
287;22288
288;22290
287;22292
285;22294
283;22296
281;22298
281;22300
283;22302
285;22304
286;22306
287;22308
288;22310
287;22312
284;22315
282;22317
281;22319
282;22321
283;22323
285;22325
286;22327
287;22329
288;22331
287;22333
285;22335
283;22337
282;22339
283;22341
285;22343
287;22345
288;22347
289;22349
289;22351
288;22353
286;22355
284;22358
284;22360
285;22362
287;22364
289;22366
290;22368
291;22370
291;22372
289;22374
287;22376
285;22378
286;22380
287;22382
289;22384
291;22386
292;22388
293;22390
292;22392
290;22394
288;22396
286;22398
286;22400
288;22402
289;22404
291;22406
293;22408
293;22410
293;22412
291;22414
289;22416
287;22418
287;22420
288;22422
290;22424
292;22426
293;22428
293;22430
293;22432
291;22434
288;22436
287;22438
287;22440
289;22443
291;22445
292;22447
293;22449
294;22451
293;22453
290;22455
288;22457
287;22459
288;22461
289;22463
291;22465
292;22467
293;22469
293;22471
292;22473
290;22475
287;22477
287;22479
288;22481
289;22483
291;22486
292;22488
293;22490
293;22492
291;22494
289;22496
287;22498
287;22500
288;22502
290;22504
291;22506
292;22508
293;22510
293;22512
291;22514
288;22516
287;22518
287;22520
288;22522
290;22524
291;22526
292;22528
293;22530
292;22532
291;22534
289;22536
286;22538
286;22540
287;22542
289;22544
290;22546
292;22548
292;22550
292;22552
290;22554
288;22556
286;22558
286;22560
288;22562
289;22564
291;22566
292;22568
292;22571
292;22573
290;22575
287;22577
286;22579
287;22581
288;22583
290;22585
291;22587
292;22589
293;22591
291;22593
289;22595
287;22597
286;22599
287;22601
288;22603
290;22605
291;22607
292;22609
293;22611
291;22614
289;22616
287;22618
286;22620
287;22622
289;22624
291;22626
292;22628
293;22630
293;22632
291;22634
288;22636
287;22638
287;22640
288;22642
290;22644
291;22646
293;22648
294;22650
293;22652
291;22654
290;22656
288;22658
288;22660
289;22662
291;22664
293;22666
295;22668
296;22670
296;22672
295;22674
293;22676
291;22678
291;22680
292;22682
294;22684
295;22686
296;22688
297;22690
297;22692
295;22694
292;22696
290;22699
290;22701
291;22703
292;22705
293;22707
294;22709
295;22711
293;22713
291;22715
288;22717
287;22719
287;22721
289;22723
290;22725
291;22727
293;22729
293;22731
291;22733
289;22735
287;22737
286;22739
286;22742
288;22744
289;22746
290;22748
291;22750
292;22752
290;22754
287;22756
285;22758
284;22760
286;22762
287;22764
289;22766
290;22768
291;22770
291;22772
289;22774
286;22776
284;22778
283;22780
283;22782
283;22784
283;22786
283;22788
282;22790
281;22792
278;22794
275;22796
274;22798
276;22800
280;22802
287;22804
294;22806
302;22808
311;22810
320;22812
326;22814
331;22816
336;22818
341;22820
345;22822
347;22824
347;22827
346;22829
344;22831
341;22833
336;22835
330;22837
326;22839
324;22841
323;22843
322;22845
322;22847
322;22849
320;22851
318;22853
314;22855
310;22857
307;22859
306;22861
306;22863
306;22865
306;22867
305;22870
304;22872
302;22874
298;22876
295;22878
293;22880
293;22882
293;22884
294;22886
294;22888
294;22890
294;22892
291;22894
288;22896
285;22898
284;22900
285;22902
286;22904
287;22906
288;22908
288;22910
288;22912
286;22914
284;22916
281;22918
280;22920
280;22922
282;22924
283;22926
285;22928
285;22930
286;22932
284;22934
282;22936
279;22938
279;22940
280;22942
282;22944
283;22946
284;22948
285;22950
285;22952
283;22955
281;22957
279;22959
280;22961
281;22963
283;22965
284;22967
286;22969
287;22971
287;22973
285;22975
283;22977
281;22979
282;22981
284;22983
285;22985
287;22987
288;22989
289;22991
288;22993
286;22995
284;22998
283;23000
284;23002
286;23004
288;23006
289;23008
291;23010
291;23012
290;23014
288;23016
286;23018
286;23020
287;23022
289;23024
291;23026
293;23028
294;23030
295;23032
293;23034
291;23036
290;23038
289;23040
290;23042
292;23044
294;23046
296;23048
297;23050
298;23052
297;23054
295;23056
294;23058
293;23060
294;23062
296;23064
298;23066
300;23068
301;23070
302;23072
300;23074
298;23076
296;23078
296;23080
297;23083
299;23085
301;23087
302;23089
303;23091
303;23093
301;23095
298;23097
296;23099
296;23101
297;23103
298;23105
300;23107
300;23109
301;23111
300;23113
297;23115
295;23117
293;23119
293;23121
294;23123
295;23126
296;23128
296;23130
296;23132
295;23134
292;23136
290;23138
288;23140
288;23142
290;23144
291;23146
291;23148
293;23150
292;23152
290;23154
288;23156
285;23158
284;23160
285;23162
286;23164
287;23166
288;23168
289;23170
289;23172
288;23174
286;23176
283;23178
282;23180
282;23182
284;23184
286;23186
287;23188
288;23190
288;23192
287;23194
285;23196
283;23198
282;23200
283;23202
285;23204
286;23206
288;23208
289;23211
289;23213
287;23215
285;23217
283;23219
283;23221
285;23223
286;23225
288;23227
289;23229
290;23231
290;23233
288;23235
286;23237
284;23239
284;23241
285;23243
287;23245
289;23247
290;23249
291;23251
291;23254
289;23256
287;23258
285;23260
286;23262
288;23264
289;23266
291;23268
292;23270
292;23272
291;23274
289;23276
287;23278
286;23280
286;23282
288;23284
290;23286
291;23288
293;23290
293;23292
292;23294
291;23296
288;23298
286;23300
287;23302
289;23304
290;23306
292;23308
293;23310
294;23312
293;23314
291;23316
289;23318
288;23320
288;23322
289;23324
291;23326
293;23328
294;23330
294;23332
293;23334
290;23336
289;23339
288;23341
289;23343
291;23345
292;23347
294;23349
295;23351
295;23353
293;23355
291;23357
289;23359
289;23361
290;23363
292;23365
293;23367
294;23369
295;23371
295;23373
293;23375
291;23377
289;23379
290;23382
291;23384
293;23386
294;23388
295;23390
296;23392
295;23394
293;23396
291;23398
290;23400
290;23402
292;23404
293;23406
295;23408
296;23410
297;23412
295;23414
293;23416
291;23418
290;23420
290;23422
292;23424
293;23426
295;23428
296;23430
297;23432
296;23434
294;23436
291;23438
290;23440
290;23442
292;23444
293;23446
295;23448
296;23450
297;23452
296;23454
294;23456
291;23458
291;23460
291;23462
293;23464
294;23467
296;23469
297;23471
297;23473
296;23475
294;23477
292;23479
291;23481
293;23483
294;23485
296;23487
297;23489
298;23491
299;23493
297;23495
295;23497
293;23499
292;23501
294;23503
296;23505
298;23507
299;23510
300;23512
300;23514
299;23516
297;23518
296;23520
296;23522
298;23524
300;23526
301;23528
302;23530
303;23532
302;23534
300;23536
297;23538
296;23540
296;23542
298;23544
299;23546
300;23548
301;23550
301;23552
301;23554
299;23556
296;23558
294;23560
294;23562
295;23564
296;23566
298;23568
299;23570
299;23572
299;23574
296;23576
294;23578
292;23580
293;23582
294;23584
295;23586
297;23588
298;23590
298;23592
297;23595
295;23597
293;23599
292;23601
292;23603
294;23605
296;23607
297;23609
298;23611
298;23613
297;23615
294;23617
292;23619
292;23621
292;23623
293;23625
293;23627
293;23629
292;23631
290;23633
287;23635
283;23638
280;23640
280;23642
282;23644
286;23646
291;23648
298;23650
305;23652
312;23654
318;23656
324;23658
331;23660
338;23662
346;23664
352;23666
355;23668
357;23670
355;23672
352;23674
347;23676
342;23678
340;23680
337;23682
335;23684
334;23686
333;23688
332;23690
331;23692
329;23694
325;23696
322;23698
318;23700
316;23702
316;23704
316;23706
315;23708
315;23710
314;23712
312;23714
308;23716
304;23718
302;23720
301;23723
301;23725
301;23727
302;23729
302;23731
301;23733
299;23735
296;23737
293;23739
291;23741
291;23743
292;23745
293;23747
294;23749
294;23751
294;23753
291;23755
289;23757
287;23759
285;23761
286;23763
288;23766
289;23768
290;23770
290;23772
290;23774
288;23776
285;23778
284;23780
283;23782
285;23784
286;23786
288;23788
289;23790
289;23792
289;23794
287;23796
284;23798
283;23800
283;23802
285;23804
287;23806
287;23808
289;23810
290;23812
290;23814
288;23816
286;23818
284;23820
284;23822
286;23824
287;23826
289;23828
291;23830
292;23832
291;23834
289;23836
288;23838
286;23840
286;23842
288;23844
290;23846
291;23848
293;23851
294;23853
293;23855
291;23857
289;23859
288;23861
289;23863
291;23865
292;23867
294;23869
296;23871
296;23873
296;23875
294;23877
292;23879
291;23881
292;23883
294;23885
295;23887
298;23889
299;23891
299;23894
298;23896
296;23898
294;23900
294;23902
296;23904
297;23906
300;23908
301;23910
302;23912
302;23914
301;23916
299;23918
297;23920
297;23922
299;23924
300;23926
302;23928
303;23930
304;23932
303;23934
302;23936
300;23938
298;23940
298;23942
298;23944
300;23946
301;23948
302;23950
302;23952
302;23954
300;23956
297;23958
295;23960
295;23962
296;23964
297;23966
299;23968
300;23970
300;23972
299;23974
297;23976
294;23979
292;23981
292;23983
293;23985
295;23987
296;23989
297;23991
297;23993
296;23995
294;23997
291;23999
290;24001
290;24003
291;24005
292;24007
294;24009
295;24011
295;24013
294;24015
291;24017
289;24019
288;24022
289;24024
290;24026
292;24028
293;24030
295;24032
295;24034
293;24036
291;24038
289;24040
289;24042
290;24044
292;24046
293;24048
295;24050
295;24052
295;24054
293;24056
291;24058
289;24060
289;24062
290;24064
292;24066
294;24068
295;24070
296;24072
296;24074
295;24076
293;24078
291;24080
291;24082
292;24084
293;24086
295;24088
297;24090
297;24092
297;24094
295;24096
293;24098
291;24100
291;24102
293;24104
295;24107
296;24109
297;24111
298;24113
298;24115
296;24117
293;24119
292;24121
292;24123
294;24125
296;24127
297;24129
298;24131
299;24133
298;24135
296;24137
293;24139
292;24141
293;24143
294;24145
296;24147
297;24150
298;24152
298;24154
297;24156
295;24158
293;24160
292;24162
293;24164
295;24166
296;24168
297;24170
298;24172
299;24174
297;24176
294;24178
292;24180
292;24182
293;24184
295;24186
296;24188
298;24190
298;24192
298;24194
298;24196
295;24198
293;24200
292;24202
293;24204
295;24206
296;24208
298;24210
299;24212
299;24214
297;24216
295;24218
293;24220
292;24222
294;24224
295;24226
297;24228
298;24230
299;24232
299;24235
297;24237
295;24239
293;24241
293;24243
294;24245
296;24247
297;24249
299;24251
299;24253
299;24255
297;24257
295;24259
293;24261
294;24263
295;24265
297;24267
298;24269
299;24271
300;24273
299;24275
297;24278
294;24280
293;24282
294;24284
296;24286
298;24288
299;24290
300;24292
300;24294
299;24296
297;24298
295;24300
294;24302
295;24304
296;24306
298;24308
300;24310
300;24312
300;24314
298;24316
296;24318
295;24320
294;24322
294;24324
297;24326
298;24328
300;24330
300;24332
301;24334
300;24336
297;24338
295;24340
295;24342
296;24344
298;24346
300;24348
301;24350
302;24352
302;24354
301;24356
298;24358
296;24360
297;24363
298;24365
300;24367
302;24369
304;24371
305;24373
305;24375
303;24377
301;24379
300;24381
300;24383
301;24385
303;24387
305;24389
306;24391
306;24393
306;24395
303;24397
301;24399
299;24401
299;24403
301;24406
302;24408
303;24410
304;24412
304;24414
303;24416
300;24418
298;24420
296;24422
297;24424
298;24426
300;24428
301;24430
302;24432
302;24434
300;24436
298;24438
295;24440
295;24442
295;24444
297;24446
298;24448
299;24450
300;24452
301;24454
299;24456
297;24458
295;24460
294;24462
294;24464
296;24466
297;24468
299;24470
300;24472
300;24474
298;24476
295;24478
292;24480
290;24482
290;24484
289;24486
289;24488
289;24491
288;24493
287;24495
285;24497
285;24499
285;24501
289;24503
296;24505
305;24507
314;24509
324;24511
334;24513
343;24515
350;24517
356;24519
361;24521
365;24523
367;24525
368;24527
367;24529
365;24531
362;24534
359;24536
354;24538
349;24540
345;24542
343;24544
343;24546
342;24548
340;24550
339;24552
337;24554
333;24556
329;24558
325;24560
321;24562
320;24564
319;24566
319;24568
318;24570
317;24572
315;24574
314;24576
310;24578
306;24580
303;24582
302;24584
302;24586
302;24588
302;24590
302;24592
302;24594
299;24596
296;24598
293;24600
291;24602
291;24604
291;24606
292;24608
293;24610
293;24612
292;24614
291;24616
288;24619
285;24621
284;24623
285;24625
286;24627
287;24629
288;24631
289;24633
289;24635
287;24637
284;24639
282;24641
282;24643
283;24645
284;24647
286;24649
287;24651
288;24653
287;24655
285;24657
283;24659
281;24662
282;24664
283;24666
285;24668
286;24670
287;24672
288;24674
288;24676
285;24678
284;24680
283;24682
283;24684
285;24686
287;24688
288;24690
290;24692
290;24694
289;24696
287;24698
285;24700
285;24702
285;24704
287;24706
288;24708
290;24710
292;24712
292;24714
292;24716
290;24718
288;24720
287;24722
287;24724
289;24726
291;24728
293;24730
294;24732
295;24734
294;24736
292;24738
290;24740
289;24742
290;24744
292;24747
294;24749
296;24751
297;24753
298;24755
296;24757
294;24759
292;24761
292;24763
293;24765
296;24767
297;24769
298;24771
300;24773
300;24775
298;24777
296;24779
294;24781
294;24783
296;24785
297;24787
299;24790
300;24792
301;24794
300;24796
298;24798
296;24800
294;24802
294;24804
295;24806
297;24808
298;24810
299;24812
299;24814
299;24816
296;24818
293;24820
292;24822
292;24824
294;24826
295;24828
296;24830
297;24832
297;24834
297;24836
295;24838
292;24840
290;24842
290;24844
291;24846
292;24848
293;24850
294;24852
295;24854
294;24856
291;24858
289;24860
288;24862
288;24864
289;24866
291;24868
292;24870
293;24872
293;24875
292;24877
289;24879
287;24881
287;24883
287;24885
288;24887
290;24889
292;24891
292;24893
293;24895
291;24897
289;24899
287;24901
287;24903
288;24905
290;24907
291;24909
293;24911
294;24913
294;24915
292;24918
290;24920
288;24922
288;24924
290;24926
291;24928
293;24930
294;24932
295;24934
295;24936
293;24938
291;24940
289;24942
290;24944
291;24946
293;24948
295;24950
296;24952
297;24954
296;24956
294;24958
293;24960
291;24962
291;24964
292;24966
294;24968
296;24970
297;24972
298;24974
298;24976
296;24978
293;24980
291;24982
292;24984
293;24986
295;24988
296;24990
297;24992
298;24994
298;24996
295;24998
293;25000
292;25003
292;25005
294;25007
295;25009
297;25011
298;25013
298;25015
297;25017
294;25019
292;25021
291;25023
292;25025
294;25027
295;25029
297;25031
297;25033
298;25035
296;25037
294;25039
291;25041
291;25043
292;25046
294;25048
295;25050
296;25052
297;25054
297;25056
295;25058
293;25060
291;25062
291;25064
293;25066
294;25068
295;25070
297;25072
297;25074
297;25076
295;25078
292;25080
291;25082
291;25084
293;25086
293;25088
295;25090
296;25092
297;25094
297;25096
295;25098
293;25100
291;25102
291;25104
292;25106
294;25108
295;25110
296;25112
297;25114
297;25116
295;25118
292;25120
291;25122
291;25124
292;25126
294;25128
296;25131
296;25133
297;25135
296;25137
294;25139
292;25141
291;25143
291;25145
292;25147
294;25149
296;25151
297;25153
297;25155
296;25157
293;25159
291;25161
291;25163
291;25165
293;25167
294;25169
296;25171
296;25174
297;25176
295;25178
293;25180
291;25182
291;25184
292;25186
294;25188
296;25190
297;25192
298;25194
298;25196
296;25198
294;25200
292;25202
292;25204
294;25206
296;25208
297;25210
299;25212
300;25214
300;25216
299;25218
297;25220
296;25222
295;25224
297;25226
298;25228
300;25230
302;25232
302;25234
302;25236
300;25238
298;25240
296;25242
295;25244
297;25246
298;25248
299;25250
300;25252
300;25254
299;25256
297;25259
294;25261
292;25263
292;25265
293;25267
295;25269
296;25271
297;25273
297;25275
296;25277
294;25279
291;25281
290;25283
290;25285
292;25287
293;25289
295;25291
296;25293
296;25295
294;25297
292;25299
290;25302
289;25304
289;25306
291;25308
292;25310
294;25312
295;25314
295;25316
293;25318
291;25320
289;25322
288;25324
289;25326
289;25328
290;25330
290;25332
289;25334
286;25336
283;25338
279;25340
276;25342
275;25344
277;25346
279;25348
284;25350
291;25352
298;25354
306;25356
312;25358
319;25360
327;25362
336;25364
347;25366
356;25368
363;25370
367;25372
369;25374
367;25376
363;25378
358;25380
353;25382
350;25384
349;25387
348;25389
347;25391
346;25393
344;25395
341;25397
337;25399
332;25401
328;25403
326;25405
324;25407
323;25409
323;25411
321;25413
319;25415
316;25417
312;25419
308;25421
305;25423
303;25425
303;25427
303;25430
303;25432
302;25434
301;25436
298;25438
294;25440
291;25442
289;25444
289;25446
289;25448
290;25450
290;25452
290;25454
289;25456
287;25458
284;25460
282;25462
281;25464
282;25466
282;25468
283;25470
284;25472
284;25474
285;25476
283;25478
280;25480
278;25482
277;25484
277;25486
279;25488
