mV;time
645;288
643;290
645;292
644;294
641;296
644;299
643;301
644;303
644;305
645;307
644;309
644;311
643;313
641;315
640;317
639;319
639;321
642;323
644;325
644;327
644;329
643;331
641;333
638;335
638;337
637;339
638;342
639;344
644;346
644;348
644;350
643;352
646;354
642;356
642;358
642;360
644;362
644;364
644;366
644;368
644;370
645;372
644;374
644;376
644;378
644;380
644;382
644;384
644;386
644;388
645;390
643;392
643;394
644;396
644;398
644;400
644;402
645;404
641;406
644;408
643;410
644;412
644;414
649;416
644;418
644;420
644;422
643;424
645;427
643;429
644;431
644;433
644;435
644;437
644;439
644;441
644;443
644;445
644;447
645;449
644;451
643;453
644;455
644;457
644;459
644;461
647;463
645;465
645;467
643;470
644;472
643;474
645;476
645;478
645;480
645;482
644;484
644;486
644;488
644;490
644;492
644;494
644;496
645;498
645;500
644;502
644;504
644;506
644;508
645;510
645;512
645;514
642;516
644;518
644;520
644;522
644;524
650;526
645;528
645;530
643;532
644;534
643;536
645;538
644;540
645;542
645;544
645;546
644;548
644;550
643;552
643;555
644;557
644;559
645;561
644;563
644;565
645;567
644;569
644;571
646;573
645;575
644;577
643;579
643;581
644;583
644;585
644;587
645;589
644;591
644;593
644;595
644;598
644;600
644;602
645;604
645;606
645;608
645;610
643;612
645;614
644;616
644;618
645;620
645;622
645;624
644;626
644;628
645;630
643;632
644;634
645;636
645;638
645;640
644;642
644;644
644;646
643;648
644;650
645;652
644;654
645;656
644;658
644;660
644;662
644;664
643;666
645;668
645;670
644;672
644;674
644;676
643;678
644;680
645;683
645;685
645;687
643;689
644;691
644;693
644;695
644;697
644;699
645;701
645;703
644;705
644;707
644;709
644;711
644;713
644;715
644;717
644;719
644;721
644;723
644;726
643;728
645;730
644;732
644;734
644;736
644;738
644;740
643;742
644;744
645;746
645;748
640;750
643;752
645;754
644;756
644;758
644;760
645;762
645;764
645;766
644;768
644;770
644;772
644;774
644;776
645;778
645;780
644;782
644;784
644;786
644;788
644;790
645;792
644;794
645;796
644;798
644;800
644;802
644;804
644;806
644;808
644;811
645;813
643;815
644;817
644;819
644;821
644;823
644;825
644;827
644;829
644;831
643;833
644;835
644;837
644;839
644;841
645;843
644;845
644;847
644;849
644;851
644;854
644;856
644;858
640;860
644;862
645;864
644;866
644;868
645;870
645;872
644;874
644;876
644;878
644;880
644;882
645;884
645;886
645;888
644;890
644;892
643;894
644;896
644;898
644;900
645;902
645;904
645;906
643;908
644;910
644;912
644;914
644;916
645;918
645;920
644;922
644;924
644;926
644;928
644;930
643;932
644;934
644;936
644;939
644;941
644;943
644;945
644;947
645;949
645;951
644;953
643;955
644;957
644;959
644;961
644;963
645;965
645;967
639;969
644;971
644;973
643;975
644;977
644;979
644;982
645;984
645;986
644;988
645;990
644;992
644;994
644;996
645;998
644;1000
644;1002
644;1004
644;1006
644;1008
644;1010
644;1012
644;1014
641;1016
643;1018
644;1020
644;1022
644;1024
643;1026
645;1028
645;1030
644;1032
644;1034
644;1036
644;1038
644;1040
644;1042
645;1044
645;1046
644;1048
645;1050
644;1052
644;1054
644;1056
645;1058
645;1060
645;1062
645;1064
644;1067
644;1069
643;1071
644;1073
645;1075
645;1077
640;1079
644;1081
644;1083
644;1085
644;1087
644;1089
644;1091
644;1093
643;1095
642;1097
641;1099
640;1101
643;1103
644;1105
644;1107
644;1110
643;1112
641;1114
639;1116
638;1118
637;1120
638;1122
641;1124
641;1126
644;1128
645;1130
644;1132
643;1134
649;1136
642;1138
643;1140
644;1142
644;1144
645;1146
644;1148
644;1150
644;1152
644;1154
644;1156
644;1158
643;1160
644;1162
644;1164
644;1166
645;1168
644;1170
645;1172
644;1174
644;1176
644;1178
643;1180
643;1182
644;1184
644;1186
639;1188
644;1190
644;1192
644;1195
643;1197
643;1199
644;1201
645;1203
644;1205
644;1207
644;1209
644;1211
643;1213
644;1215
644;1217
645;1219
644;1221
644;1223
644;1225
644;1227
643;1229
645;1231
645;1233
643;1235
644;1238
645;1240
644;1242
644;1244
650;1246
645;1248
645;1250
643;1252
644;1254
644;1256
643;1258
643;1260
644;1262
644;1264
645;1266
644;1268
644;1270
644;1272
643;1274
644;1276
644;1278
644;1280
645;1282
644;1284
644;1286
644;1288
645;1290
644;1292
644;1294
644;1296
640;1298
643;1300
644;1302
644;1304
644;1306
645;1308
644;1310
644;1312
643;1314
644;1316
644;1318
644;1320
644;1323
645;1325
645;1327
645;1329
644;1331
643;1333
644;1335
643;1337
644;1339
644;1341
645;1343
643;1345
644;1347
644;1349
644;1351
644;1353
649;1355
644;1357
645;1359
643;1361
644;1363
644;1366
644;1368
644;1370
644;1372
645;1374
644;1376
643;1378
644;1380
644;1382
644;1384
644;1386
645;1388
645;1390
645;1392
644;1394
643;1396
644;1398
644;1400
645;1402
645;1404
645;1406
641;1408
644;1410
643;1412
644;1414
644;1416
645;1418
645;1420
645;1422
644;1424
644;1426
644;1428
644;1430
644;1432
644;1434
644;1436
644;1438
643;1440
644;1442
644;1444
644;1446
644;1448
645;1451
645;1453
643;1455
644;1457
644;1459
643;1461
644;1463
648;1465
645;1467
645;1469
644;1471
643;1473
644;1475
644;1477
644;1479
644;1481
645;1483
644;1485
643;1487
643;1489
644;1491
644;1494
644;1496
644;1498
644;1500
644;1502
644;1504
644;1506
644;1508
643;1510
645;1512
644;1514
644;1516
644;1518
644;1520
645;1522
644;1524
645;1526
644;1528
644;1530
644;1532
644;1534
644;1536
644;1538
644;1540
644;1542
645;1544
645;1546
645;1548
644;1550
643;1552
643;1554
644;1556
644;1558
644;1560
645;1562
644;1564
644;1566
644;1568
644;1570
644;1572
647;1574
645;1576
644;1579
644;1581
644;1583
644;1585
643;1587
643;1589
645;1591
644;1593
644;1595
645;1597
643;1599
644;1601
644;1603
644;1605
645;1607
645;1609
644;1611
644;1613
644;1615
643;1617
643;1619
645;1622
644;1624
645;1626
644;1628
643;1630
645;1632
643;1634
644;1636
644;1638
644;1640
644;1642
644;1644
644;1646
644;1648
644;1650
644;1652
644;1654
644;1656
644;1658
644;1660
644;1662
643;1664
644;1666
643;1668
644;1670
644;1672
644;1674
643;1676
644;1678
644;1680
644;1682
646;1684
644;1686
645;1688
644;1690
644;1692
645;1694
644;1696
644;1698
645;1700
645;1702
645;1704
644;1707
644;1709
644;1711
644;1713
644;1715
645;1717
644;1719
644;1721
645;1723
644;1725
644;1727
644;1729
645;1731
645;1733
644;1735
644;1737
644;1739
644;1741
643;1743
643;1745
645;1747
644;1750
644;1752
645;1754
644;1756
644;1758
644;1760
644;1762
645;1764
645;1766
644;1768
644;1770
644;1772
643;1774
644;1776
645;1778
644;1780
644;1782
644;1784
643;1786
644;1788
644;1790
644;1792
646;1794
645;1796
644;1798
644;1800
644;1802
643;1804
644;1806
644;1808
645;1810
645;1812
645;1814
644;1816
644;1818
644;1820
643;1822
644;1824
645;1826
645;1828
645;1830
644;1832
643;1835
644;1837
644;1839
644;1841
645;1843
645;1845
644;1847
643;1849
643;1851
643;1853
645;1855
644;1857
644;1859
642;1861
643;1863
644;1865
644;1867
644;1869
643;1871
644;1873
643;1875
642;1878
641;1880
642;1882
644;1884
643;1886
644;1888
644;1890
644;1892
643;1894
644;1896
644;1898
644;1900
643;1902
644;1904
645;1906
640;1908
643;1910
643;1912
643;1914
644;1916
645;1918
644;1920
644;1922
644;1924
643;1926
644;1928
644;1930
643;1932
643;1934
644;1936
644;1938
644;1940
643;1942
644;1944
644;1946
644;1948
644;1950
644;1952
644;1954
643;1956
644;1958
643;1960
644;1963
644;1965
645;1967
644;1969
641;1971
644;1973
643;1975
643;1977
644;1979
644;1981
644;1983
645;1985
644;1987
644;1989
644;1991
644;1993
644;1995
644;1997
644;1999
644;2001
644;2003
644;2006
644;2008
644;2010
644;2012
644;2014
644;2016
639;2018
643;2020
643;2022
643;2024
645;2026
645;2028
645;2030
645;2032
643;2034
644;2036
644;2038
644;2040
643;2042
644;2044
645;2046
645;2048
644;2050
645;2052
643;2054
644;2056
643;2058
644;2060
644;2062
644;2064
643;2066
644;2068
643;2070
644;2072
643;2074
644;2076
644;2078
639;2080
644;2082
644;2084
644;2086
643;2088
644;2091
644;2093
645;2095
643;2097
644;2099
644;2101
643;2103
644;2105
645;2107
644;2109
644;2111
644;2113
644;2115
644;2117
643;2119
643;2121
644;2123
645;2125
640;2127
644;2129
644;2131
644;2134
644;2136
645;2138
644;2140
645;2142
644;2144
643;2146
644;2148
644;2150
644;2152
645;2154
644;2156
644;2158
644;2160
643;2162
644;2164
644;2166
643;2168
645;2170
644;2172
643;2174
643;2176
643;2178
643;2180
644;2182
645;2184
645;2186
644;2188
640;2190
643;2192
644;2194
644;2196
643;2198
643;2200
644;2202
644;2204
645;2206
644;2208
643;2210
643;2212
644;2214
644;2216
644;2219
644;2221
644;2223
645;2225
643;2227
644;2229
643;2231
644;2233
644;2235
641;2237
643;2239
643;2241
645;2243
644;2245
649;2247
644;2249
644;2251
644;2253
644;2255
643;2257
643;2259
643;2262
645;2264
644;2266
645;2268
645;2270
645;2272
644;2274
644;2276
643;2278
644;2280
644;2282
643;2284
644;2286
644;2288
645;2290
645;2292
647;2294
645;2296
644;2298
644;2300
644;2302
643;2304
643;2306
643;2308
644;2310
645;2312
644;2314
644;2316
644;2318
644;2320
644;2322
643;2324
644;2326
645;2328
645;2330
644;2332
644;2334
644;2336
644;2338
644;2340
645;2342
645;2344
642;2347
644;2349
644;2351
644;2353
644;2355
650;2357
645;2359
645;2361
644;2363
644;2365
643;2367
644;2369
643;2371
644;2373
644;2375
644;2377
643;2379
644;2381
644;2383
644;2385
644;2387
645;2390
644;2392
644;2394
644;2396
644;2398
644;2400
643;2402
646;2404
645;2406
644;2408
644;2410
643;2412
644;2414
643;2416
644;2418
644;2420
645;2422
645;2424
643;2426
643;2428
643;2430
644;2432
644;2434
644;2436
644;2438
644;2440
644;2442
644;2444
644;2446
645;2448
644;2450
644;2452
644;2454
642;2456
644;2458
643;2460
644;2462
644;2464
650;2466
644;2468
645;2470
645;2472
643;2475
644;2477
644;2479
644;2481
645;2483
644;2485
644;2487
643;2489
643;2491
643;2493
644;2495
644;2497
644;2499
645;2501
644;2503
645;2505
645;2507
645;2509
644;2511
646;2513
645;2515
645;2518
644;2520
644;2522
645;2524
644;2526
644;2528
645;2530
644;2532
645;2534
644;2536
643;2538
643;2540
644;2542
643;2544
645;2546
644;2548
645;2550
644;2552
644;2554
643;2556
643;2558
642;2560
643;2562
644;2564
642;2566
644;2568
644;2570
644;2572
643;2574
648;2576
641;2578
640;2580
640;2582
642;2584
644;2586
644;2588
644;2590
644;2592
645;2594
644;2596
643;2598
644;2600
644;2603
644;2605
643;2607
645;2609
644;2611
644;2613
644;2615
643;2617
643;2619
644;2621
645;2623
645;2625
645;2627
644;2629
644;2631
644;2633
643;2635
644;2637
644;2639
644;2641
644;2643
644;2646
644;2648
644;2650
644;2652
644;2654
644;2656
645;2658
644;2660
643;2662
643;2664
643;2666
644;2668
644;2670
644;2672
644;2674
644;2676
644;2678
644;2680
644;2682
643;2684
645;2686
645;2688
645;2690
644;2692
644;2694
644;2696
644;2698
643;2700
645;2702
645;2704
645;2706
644;2708
643;2710
644;2712
644;2714
644;2716
645;2718
645;2720
644;2722
644;2724
644;2726
644;2728
644;2731
645;2733
645;2735
645;2737
644;2739
643;2741
644;2743
645;2745
644;2747
645;2749
645;2751
645;2753
643;2755
644;2757
643;2759
644;2761
644;2763
645;2765
645;2767
644;2769
644;2771
644;2774
644;2776
644;2778
644;2780
644;2782
645;2784
644;2786
644;2788
644;2790
644;2792
644;2794
645;2796
645;2798
640;2800
643;2802
645;2804
644;2806
644;2808
644;2810
644;2812
644;2814
644;2816
644;2818
644;2820
644;2822
644;2824
644;2826
645;2828
645;2830
644;2832
643;2834
644;2836
644;2838
644;2840
645;2842
645;2844
645;2846
644;2848
644;2850
644;2852
644;2854
645;2856
645;2859
645;2861
644;2863
644;2865
643;2867
644;2869
643;2871
644;2873
645;2875
645;2877
645;2879
644;2881
644;2883
644;2885
644;2887
645;2889
645;2891
645;2893
644;2895
644;2897
644;2899
644;2902
644;2904
645;2906
645;2908
639;2910
644;2912
643;2914
644;2916
644;2918
644;2920
645;2922
645;2924
645;2926
643;2928
645;2930
643;2932
645;2934
644;2936
644;2938
644;2940
644;2942
644;2944
644;2946
644;2948
643;2950
645;2952
645;2954
645;2956
643;2958
644;2960
645;2962
644;2964
644;2966
645;2968
645;2970
644;2972
644;2974
644;2976
644;2978
644;2980
644;2982
645;2984
645;2987
644;2989
643;2991
644;2993
644;2995
644;2997
645;2999
645;3001
645;3003
644;3005
643;3007
644;3009
644;3011
644;3013
644;3015
645;3017
639;3019
644;3021
643;3023
644;3025
644;3027
643;3030
645;3032
645;3034
644;3036
644;3038
644;3040
644;3042
644;3044
645;3046
645;3048
645;3050
644;3052
644;3054
644;3056
643;3058
644;3060
645;3062
644;3064
642;3066
644;3068
644;3070
644;3072
643;3074
644;3076
644;3078
645;3080
644;3082
644;3084
645;3086
644;3088
644;3090
644;3092
645;3094
645;3096
644;3098
644;3100
644;3102
645;3104
644;3106
645;3108
644;3110
644;3112
645;3115
644;3117
644;3119
643;3121
644;3123
645;3125
645;3127
639;3129
644;3131
644;3133
644;3135
644;3137
644;3139
645;3141
645;3143
644;3145
644;3147
645;3149
644;3151
644;3153
645;3155
644;3158
645;3160
645;3162
644;3164
644;3166
644;3168
644;3170
645;3172
645;3174
643;3176
644;3178
644;3180
644;3182
644;3184
651;3186
645;3188
644;3190
644;3192
644;3194
644;3196
644;3198
644;3200
644;3202
645;3204
645;3206
645;3208
645;3210
644;3212
644;3214
644;3216
645;3218
645;3220
645;3222
645;3224
645;3226
645;3228
645;3230
644;3232
645;3234
645;3236
640;3238
644;3240
644;3243
644;3245
644;3247
644;3249
645;3251
644;3253
644;3255
644;3257
644;3259
644;3261
644;3263
645;3265
644;3267
645;3269
643;3271
643;3273
644;3275
644;3277
643;3279
644;3281
645;3283
643;3286
644;3288
644;3290
644;3292
643;3294
650;3296
644;3298
645;3300
644;3302
644;3304
645;3306
643;3308
644;3310
645;3312
644;3314
644;3316
643;3318
643;3320
643;3322
643;3324
644;3326
645;3328
644;3330
645;3332
643;3334
645;3336
644;3338
644;3340
644;3342
645;3344
645;3346
640;3348
644;3350
644;3352
644;3354
644;3356
645;3358
645;3360
645;3362
644;3364
644;3366
643;3368
644;3371
644;3373
644;3375
645;3377
644;3379
644;3381
644;3383
644;3385
644;3387
644;3389
645;3391
645;3393
643;3395
644;3397
645;3399
645;3401
645;3403
649;3405
645;3407
645;3409
644;3411
644;3414
644;3416
644;3418
643;3420
645;3422
645;3424
645;3426
644;3428
644;3430
644;3432
644;3434
644;3436
645;3438
645;3440
644;3442
645;3444
644;3446
644;3448
644;3450
645;3452
644;3454
645;3456
641;3458
644;3460
644;3462
644;3464
644;3466
645;3468
645;3470
645;3472
644;3474
644;3476
643;3478
644;3480
644;3482
645;3484
645;3486
645;3488
644;3490
644;3492
644;3494
643;3496
644;3499
645;3501
645;3503
643;3505
644;3507
644;3509
644;3511
644;3513
648;3515
645;3517
645;3519
644;3521
644;3523
645;3525
644;3527
644;3529
645;3531
645;3533
645;3535
644;3537
644;3539
644;3542
644;3544
644;3546
645;3548
645;3550
645;3552
644;3554
644;3556
644;3558
644;3560
645;3562
645;3564
645;3566
645;3568
644;3570
644;3572
644;3574
645;3576
645;3578
645;3580
645;3582
644;3584
644;3586
644;3588
644;3590
644;3592
645;3594
645;3596
645;3598
644;3600
645;3602
644;3604
644;3606
644;3608
645;3610
644;3612
643;3614
643;3616
644;3618
644;3620
644;3622
648;3624
645;3627
645;3629
644;3631
644;3633
645;3635
644;3637
645;3639
645;3641
645;3643
645;3645
644;3647
644;3649
644;3651
644;3653
644;3655
645;3657
645;3659
645;3661
644;3663
644;3665
644;3667
644;3670
645;3672
645;3674
644;3676
644;3678
644;3680
644;3682
644;3684
645;3686
645;3688
645;3690
644;3692
644;3694
644;3696
644;3698
644;3700
644;3702
645;3704
645;3706
644;3708
644;3710
644;3712
643;3714
644;3716
643;3718
645;3720
645;3722
643;3724
644;3726
644;3728
644;3730
644;3732
647;3734
645;3736
645;3738
643;3740
644;3742
644;3744
644;3746
643;3748
645;3750
645;3752
645;3755
644;3757
643;3759
645;3761
644;3763
645;3765
645;3767
645;3769
645;3771
644;3773
644;3775
643;3777
644;3779
645;3781
645;3783
645;3785
643;3787
644;3789
644;3791
644;3793
644;3795
645;3798
645;3800
644;3802
644;3804
643;3806
644;3808
644;3810
644;3812
645;3814
644;3816
645;3818
644;3820
644;3822
644;3824
644;3826
645;3828
645;3830
645;3832
643;3834
644;3836
644;3838
644;3840
645;3842
647;3844
645;3846
645;3848
643;3850
644;3852
643;3854
644;3856
644;3858
645;3860
645;3862
645;3864
644;3866
644;3868
644;3870
645;3872
644;3874
645;3876
645;3878
645;3880
644;3883
644;3885
645;3887
644;3889
645;3891
645;3893
645;3895
644;3897
645;3899
644;3901
644;3903
644;3905
645;3907
645;3909
644;3911
644;3913
644;3915
643;3917
643;3919
644;3921
645;3923
645;3926
644;3928
644;3930
644;3932
645;3934
643;3936
645;3938
645;3940
644;3942
645;3944
644;3946
644;3948
644;3950
645;3952
645;3954
644;3956
639;3958
644;3960
644;3962
644;3964
644;3966
643;3968
645;3970
645;3972
645;3974
644;3976
644;3978
644;3980
644;3982
644;3984
645;3986
645;3988
644;3990
644;3992
644;3994
644;3996
644;3998
645;4000
645;4002
645;4004
644;4006
644;4008
644;4011
644;4013
644;4015
645;4017
645;4019
644;4021
644;4023
644;4025
644;4027
644;4029
644;4031
644;4033
645;4035
645;4037
643;4039
644;4041
643;4043
643;4045
645;4047
645;4049
645;4051
644;4054
644;4056
644;4058
644;4060
644;4062
645;4064
645;4066
640;4068
644;4070
644;4072
644;4074
644;4076
645;4078
645;4080
645;4082
644;4084
644;4086
643;4088
644;4090
643;4092
645;4094
644;4096
645;4098
644;4100
644;4102
644;4104
644;4106
645;4108
645;4110
645;4112
645;4114
644;4116
644;4118
644;4120
644;4122
644;4124
645;4126
645;4128
642;4130
644;4132
644;4134
644;4136
644;4139
644;4141
645;4143
645;4145
644;4147
644;4149
644;4151
644;4153
644;4155
645;4157
645;4159
645;4161
644;4163
644;4165
643;4167
644;4169
644;4171
644;4173
645;4175
639;4177
644;4179
644;4182
644;4184
644;4186
645;4188
645;4190
645;4192
645;4194
645;4196
644;4198
644;4200
644;4202
645;4204
645;4206
645;4208
644;4210
644;4212
644;4214
644;4216
644;4218
644;4220
645;4222
645;4224
644;4226
644;4228
644;4230
644;4232
644;4234
645;4236
644;4238
641;4240
644;4242
644;4244
644;4246
644;4248
644;4250
645;4252
645;4254
643;4256
643;4258
644;4260
644;4262
644;4264
645;4267
645;4269
645;4271
644;4273
644;4275
643;4277
643;4279
644;4281
645;4283
644;4285
641;4287
644;4289
645;4291
644;4293
644;4295
645;4297
645;4299
644;4301
645;4303
644;4305
643;4307
644;4310
644;4312
645;4314
645;4316
645;4318
644;4320
644;4322
644;4324
644;4326
645;4328
645;4330
645;4332
643;4334
644;4336
644;4338
644;4340
644;4342
649;4344
645;4346
645;4348
644;4350
645;4352
644;4354
644;4356
644;4358
643;4360
644;4362
645;4364
644;4366
643;4368
644;4370
645;4372
644;4374
645;4376
645;4378
644;4380
644;4382
644;4384
644;4386
644;4388
644;4390
645;4392
644;4395
640;4397
644;4399
644;4401
644;4403
644;4405
645;4407
645;4409
645;4411
643;4413
643;4415
644;4417
644;4419
644;4421
645;4423
645;4425
645;4427
643;4429
645;4431
644;4433
645;4435
644;4438
645;4440
645;4442
643;4444
644;4446
644;4448
644;4450
644;4452
648;4454
644;4456
644;4458
644;4460
644;4462
644;4464
644;4466
644;4468
645;4470
644;4472
645;4474
643;4476
644;4478
643;4480
644;4482
644;4484
645;4486
645;4488
645;4490
644;4492
643;4494
644;4496
644;4498
644;4500
645;4502
644;4504
641;4506
644;4508
643;4510
644;4512
644;4514
649;4516
645;4518
644;4520
643;4523
644;4525
644;4527
643;4529
645;4531
645;4533
644;4535
644;4537
644;4539
644;4541
643;4543
644;4545
644;4547
645;4549
645;4551
643;4553
644;4555
644;4557
644;4559
644;4561
647;4563
645;4566
645;4568
643;4570
643;4572
643;4574
644;4576
644;4578
645;4580
645;4582
645;4584
643;4586
644;4588
644;4590
644;4592
644;4594
644;4596
645;4598
644;4600
644;4602
644;4604
643;4606
644;4608
643;4610
644;4612
644;4614
641;4616
643;4618
644;4620
644;4622
643;4624
650;4626
645;4628
645;4630
644;4632
644;4634
644;4636
644;4638
644;4640
645;4642
645;4644
644;4646
643;4648
644;4651
643;4653
644;4655
644;4657
644;4659
645;4661
644;4663
643;4665
644;4667
644;4669
645;4671
646;4673
645;4675
645;4677
643;4679
644;4681
644;4683
643;4685
644;4687
645;4689
645;4691
644;4694
645;4696
644;4698
643;4700
644;4702
644;4704
645;4706
645;4708
644;4710
643;4712
644;4714
644;4716
644;4718
645;4720
645;4722
645;4724
644;4726
643;4728
644;4730
644;4732
644;4734
650;4736
645;4738
645;4740
644;4742
643;4744
644;4746
645;4748
643;4750
644;4752
645;4754
645;4756
644;4758
644;4760
644;4762
644;4764
644;4766
645;4768
645;4770
644;4772
643;4774
644;4776
643;4779
644;4781
646;4783
645;4785
645;4787
644;4789
644;4791
644;4793
644;4795
643;4797
645;4799
645;4801
645;4803
645;4805
644;4807
644;4809
643;4811
643;4813
645;4815
645;4817
644;4819
643;4822
645;4824
644;4826
644;4828
645;4830
645;4832
645;4834
643;4836
644;4838
644;4840
644;4842
645;4844
645;4846
645;4848
642;4850
643;4852
643;4854
644;4856
644;4858
644;4860
644;4862
645;4864
645;4866
644;4868
644;4870
644;4872
643;4874
644;4876
645;4878
645;4880
644;4882
644;4884
645;4886
645;4888
644;4890
645;4892
644;4894
645;4896
644;4898
643;4900
644;4902
644;4904
643;4907
645;4909
644;4911
645;4913
644;4915
644;4917
643;4919
643;4921
644;4923
645;4925
645;4927
644;4929
644;4931
644;4933
644;4935
644;4937
645;4939
645;4941
644;4943
644;4945
643;4947
644;4950
644;4952
644;4954
645;4956
645;4958
640;4960
644;4962
644;4964
644;4966
645;4968
643;4970
645;4972
645;4974
644;4976
644;4978
644;4980
644;4982
644;4984
645;4986
645;4988
645;4990
644;4992
644;4994
644;4996
644;4998
644;5000
645;5002
645;5004
645;5006
644;5008
644;5010
644;5012
643;5014
644;5016
645;5018
644;5020
644;5022
644;5024
644;5026
644;5028
644;5030
643;5032
645;5035
645;5037
644;5039
645;5041
644;5043
644;5045
644;5047
645;5049
645;5051
645;5053
644;5055
644;5057
644;5059
644;5061
644;5063
645;5065
645;5067
640;5069
644;5071
645;5073
644;5075
644;5078
644;5080
645;5082
644;5084
644;5086
644;5088
644;5090
644;5092
643;5094
645;5096
645;5098
645;5100
644;5102
644;5104
644;5106
644;5108
644;5110
645;5112
645;5114
641;5116
644;5118
643;5120
643;5122
645;5124
645;5126
645;5128
645;5130
644;5132
644;5134
644;5136
644;5138
643;5140
644;5142
645;5144
645;5146
644;5148
644;5150
644;5152
644;5154
644;5156
645;5158
645;5160
645;5163
644;5165
644;5167
645;5169
644;5171
644;5173
645;5175
644;5177
639;5179
644;5181
644;5183
644;5185
644;5187
644;5189
645;5191
645;5193
644;5195
643;5197
644;5199
644;5201
644;5203
645;5206
645;5208
645;5210
643;5212
644;5214
644;5216
645;5218
645;5220
645;5222
645;5224
642;5226
644;5228
643;5230
643;5232
644;5234
650;5236
645;5238
645;5240
644;5242
644;5244
644;5246
644;5248
644;5250
645;5252
645;5254
645;5256
644;5258
644;5260
644;5262
644;5264
644;5266
645;5268
645;5270
645;5272
644;5274
645;5276
644;5278
644;5280
644;5282
645;5284
645;5286
639;5288
644;5291
644;5293
644;5295
644;5297
643;5299
645;5301
644;5303
644;5305
645;5307
644;5309
644;5311
644;5313
644;5315
644;5317
644;5319
644;5321
644;5323
644;5325
644;5327
644;5329
645;5331
644;5334
642;5336
644;5338
643;5340
643;5342
644;5344
650;5346
645;5348
644;5350
644;5352
644;5354
644;5356
644;5358
644;5360
645;5362
645;5364
645;5366
644;5368
644;5370
644;5372
644;5374
645;5376
645;5378
645;5380
645;5382
644;5384
643;5386
643;5388
644;5390
644;5392
645;5394
645;5396
639;5398
644;5400
644;5402
643;5404
643;5406
645;5408
645;5410
645;5412
644;5414
643;5416
644;5419
644;5421
644;5423
645;5425
645;5427
645;5429
644;5431
645;5433
644;5435
644;5437
644;5439
645;5441
645;5443
643;5445
644;5447
644;5449
643;5451
643;5453
650;5455
645;5457
644;5459
644;5462
644;5464
644;5466
644;5468
644;5470
645;5472
644;5474
644;5476
644;5478
644;5480
644;5482
644;5484
645;5486
645;5488
645;5490
644;5492
643;5494
643;5496
643;5498
644;5500
645;5502
645;5504
645;5506
641;5508
644;5510
644;5512
644;5514
644;5516
646;5518
645;5520
645;5522
644;5524
644;5526
644;5528
644;5530
644;5532
645;5534
645;5536
645;5538
644;5540
644;5542
644;5544
644;5547
644;5549
645;5551
645;5553
643;5555
644;5557
643;5559
644;5561
644;5563
649;5565
645;5567
645;5569
644;5571
644;5573
644;5575
644;5577
644;5579
645;5581
645;5583
645;5585
644;5587
644;5590
645;5592
644;5594
644;5596
645;5598
645;5600
644;5602
644;5604
644;5606
644;5608
645;5610
645;5612
645;5614
645;5616
644;5618
645;5620
645;5622
644;5624
644;5626
645;5628
645;5630
645;5632
644;5634
644;5636
643;5638
643;5640
645;5642
645;5644
645;5646
645;5648
643;5650
643;5652
643;5654
644;5656
644;5658
645;5660
645;5662
644;5664
643;5666
644;5668
644;5670
644;5672
647;5675
645;5677
645;5679
643;5681
643;5683
645;5685
644;5687
645;5689
645;5691
645;5693
645;5695
644;5697
644;5699
644;5701
644;5703
643;5705
645;5707
645;5709
645;5711
645;5713
645;5715
645;5718
644;5720
645;5722
645;5724
645;5726
644;5728
644;5730
644;5732
644;5734
645;5736
645;5738
645;5740
644;5742
643;5744
644;5746
644;5748
644;5750
644;5752
645;5754
645;5756
644;5758
645;5760
645;5762
644;5764
644;5766
644;5768
645;5770
645;5772
644;5774
644;5776
643;5778
644;5780
643;5782
647;5784
645;5786
645;5788
644;5790
644;5792
645;5794
644;5796
644;5798
645;5800
645;5803
645;5805
644;5807
644;5809
644;5811
644;5813
644;5815
645;5817
645;5819
644;5821
644;5823
644;5825
643;5827
644;5829
645;5831
645;5833
645;5835
644;5837
644;5839
644;5841
644;5843
644;5846
645;5848
645;5850
644;5852
644;5854
644;5856
643;5858
645;5860
643;5862
644;5864
645;5866
645;5868
645;5870
644;5872
644;5874
644;5876
645;5878
645;5880
645;5882
644;5884
645;5886
644;5888
645;5890
644;5892
646;5894
645;5896
645;5898
644;5900
644;5902
644;5904
644;5906
644;5908
645;5910
645;5912
645;5914
644;5916
644;5918
644;5920
643;5922
644;5924
645;5926
645;5928
645;5931
644;5933
644;5935
644;5937
643;5939
645;5941
645;5943
645;5945
643;5947
644;5949
644;5951
644;5953
644;5955
645;5957
645;5959
642;5961
644;5963
644;5965
644;5967
644;5969
645;5971
645;5974
645;5976
644;5978
644;5980
644;5982
645;5984
644;5986
645;5988
645;5990
645;5992
644;5994
643;5996
643;5998
644;6000
644;6002
645;6004
645;6006
640;6008
645;6010
644;6012
644;6014
644;6016
644;6018
645;6020
645;6022
645;6024
643;6026
644;6028
644;6030
644;6032
644;6034
645;6036
645;6038
644;6040
643;6042
644;6044
644;6046
644;6048
645;6050
645;6052
645;6054
644;6056
644;6059
644;6061
644;6063
644;6065
645;6067
645;6069
640;6071
644;6073
644;6075
643;6077
644;6079
644;6081
645;6083
645;6085
644;6087
643;6089
644;6091
644;6093
644;6095
645;6097
645;6099
645;6102
645;6104
644;6106
644;6108
644;6110
644;6112
645;6114
645;6116
640;6118
645;6120
643;6122
644;6124
644;6126
645;6128
645;6130
645;6132
644;6134
643;6136
644;6138
644;6140
643;6142
644;6144
645;6146
645;6148
644;6150
644;6152
644;6154
644;6156
644;6158
645;6160
645;6162
645;6164
644;6166
644;6168
644;6170
645;6172
644;6174
645;6176
644;6178
639;6180
644;6182
644;6184
645;6187
644;6189
644;6191
645;6193
645;6195
644;6197
643;6199
643;6201
643;6203
644;6205
645;6207
645;6209
645;6211
644;6213
644;6215
644;6217
644;6219
644;6221
645;6223
645;6225
641;6227
644;6230
644;6232
644;6234
644;6236
649;6238
645;6240
645;6242
644;6244
644;6246
644;6248
644;6250
644;6252
645;6254
645;6256
645;6258
644;6260
644;6262
644;6264
644;6266
644;6268
645;6270
645;6272
645;6274
644;6276
644;6278
644;6280
644;6282
644;6284
645;6286
645;6288
640;6290
644;6292
644;6294
644;6296
645;6298
644;6300
645;6302
645;6304
644;6306
644;6308
643;6310
644;6312
643;6315
645;6317
645;6319
645;6321
645;6323
644;6325
644;6327
644;6329
644;6331
645;6333
645;6335
642;6337
644;6339
643;6341
644;6343
644;6345
651;6347
645;6349
645;6351
643;6353
643;6355
645;6358
644;6360
644;6362
645;6364
645;6366
645;6368
644;6370
643;6372
644;6374
644;6376
644;6378
645;6380
645;6382
644;6384
644;6386
644;6388
644;6390
644;6392
646;6394
645;6396
645;6398
639;6400
644;6402
644;6404
644;6406
644;6408
644;6410
645;6412
645;6414
644;6416
644;6418
644;6420
644;6422
643;6424
645;6426
645;6428
645;6430
645;6432
643;6434
644;6436
644;6438
644;6440
645;6443
645;6445
642;6447
644;6449
643;6451
644;6453
644;6455
651;6457
645;6459
645;6461
644;6463
644;6465
644;6467
644;6469
644;6471
645;6473
645;6475
645;6477
644;6479
645;6481
644;6483
645;6486
644;6488
645;6490
645;6492
645;6494
644;6496
644;6498
644;6500
643;6502
646;6504
645;6506
645;6508
643;6510
644;6512
644;6514
644;6516
644;6518
645;6520
645;6522
645;6524
643;6526
645;6528
645;6530
644;6532
644;6534
645;6536
645;6538
645;6540
644;6542
644;6544
644;6546
644;6548
644;6550
645;6552
645;6554
643;6556
644;6558
644;6560
643;6562
644;6564
650;6566
645;6568
645;6571
644;6573
644;6575
644;6577
644;6579
645;6581
645;6583
645;6585
645;6587
644;6589
644;6591
644;6593
644;6595
644;6597
645;6599
645;6601
644;6603
644;6605
644;6607
644;6609
644;6611
645;6614
645;6616
645;6618
644;6620
643;6622
645;6624
644;6626
644;6628
645;6630
645;6632
645;6634
644;6636
644;6638
644;6640
644;6642
644;6644
645;6646
645;6648
644;6650
645;6652
644;6654
644;6656
644;6658
644;6660
645;6662
645;6664
644;6666
644;6668
644;6670
644;6672
644;6674
649;6676
645;6678
645;6680
645;6682
644;6684
644;6686
644;6688
644;6690
645;6692
645;6694
645;6696
645;6699
644;6701
645;6703
644;6705
644;6707
645;6709
645;6711
645;6713
644;6715
643;6717
644;6719
644;6721
645;6723
645;6725
645;6727
644;6729
644;6731
644;6733
645;6735
645;6737
645;6739
645;6742
644;6744
644;6746
645;6748
644;6750
643;6752
643;6754
645;6756
645;6758
644;6760
644;6762
644;6764
644;6766
644;6768
645;6770
645;6772
645;6774
644;6776
644;6778
645;6780
644;6782
644;6784
648;6786
645;6788
645;6790
644;6792
644;6794
644;6796
644;6798
644;6800
645;6802
645;6804
645;6806
644;6808
644;6810
644;6812
644;6814
644;6816
645;6818
645;6820
644;6822
644;6824
643;6827
645;6829
644;6831
645;6833
645;6835
645;6837
644;6839
644;6841
644;6843
644;6845
644;6847
645;6849
645;6851
644;6853
644;6855
644;6857
644;6859
644;6861
643;6863
645;6865
645;6867
644;6870
644;6872
645;6874
645;6876
644;6878
645;6880
645;6882
645;6884
644;6886
644;6888
644;6890
644;6892
644;6894
645;6896
645;6898
639;6900
644;6902
644;6904
644;6906
644;6908
644;6910
645;6912
645;6914
645;6916
644;6918
644;6920
644;6922
644;6924
644;6926
645;6928
645;6930
645;6932
644;6934
644;6936
644;6938
643;6940
645;6942
645;6944
645;6946
644;6948
644;6950
644;6952
644;6955
643;6957
645;6959
645;6961
644;6963
645;6965
644;6967
644;6969
644;6971
645;6973
645;6975
645;6977
645;6979
644;6981
643;6983
644;6985
644;6987
645;6989
645;6991
645;6993
645;6995
645;6998
645;7000
645;7002
644;7004
645;7006
645;7008
639;7010
645;7012
643;7014
643;7016
644;7018
645;7020
645;7022
645;7024
644;7026
643;7028
644;7030
645;7032
644;7034
645;7036
645;7038
645;7040
644;7042
644;7044
644;7046
643;7048
644;7050
645;7052
645;7054
645;7056
644;7058
644;7060
644;7062
644;7064
644;7066
645;7068
645;7070
644;7072
643;7074
644;7076
644;7078
644;7080
644;7083
645;7085
645;7087
645;7089
644;7091
644;7093
644;7095
644;7097
645;7099
645;7101
645;7103
644;7105
645;7107
644;7109
644;7111
644;7113
645;7115
645;7117
640;7119
645;7121
644;7123
644;7126
645;7128
645;7130
645;7132
645;7134
644;7136
644;7138
644;7140
643;7142
644;7144
645;7146
645;7148
645;7150
644;7152
645;7154
644;7156
644;7158
643;7160
645;7162
645;7164
643;7166
643;7168
644;7170
644;7172
645;7174
644;7176
645;7178
645;7180
642;7182
644;7184
645;7186
644;7188
644;7190
644;7192
645;7194
645;7196
644;7198
644;7200
644;7202
644;7204
644;7206
645;7208
645;7211
645;7213
645;7215
644;7217
643;7219
644;7221
644;7223
645;7225
645;7227
640;7229
644;7231
644;7233
644;7235
644;7237
645;7239
645;7241
645;7243
644;7245
644;7247
644;7249
644;7251
645;7254
645;7256
645;7258
645;7260
644;7262
645;7264
644;7266
644;7268
644;7270
645;7272
645;7274
643;7276
644;7278
644;7280
644;7282
644;7284
649;7286
645;7288
645;7290
644;7292
644;7294
644;7296
644;7298
645;7300
644;7302
645;7304
645;7306
644;7308
645;7310
644;7312
645;7314
644;7316
645;7318
645;7320
645;7322
643;7324
644;7326
644;7328
644;7330
644;7332
645;7334
645;7336
641;7339
644;7341
644;7343
644;7345
644;7347
646;7349
645;7351
645;7353
644;7355
645;7357
644;7359
643;7361
644;7363
645;7365
645;7367
645;7369
644;7371
644;7373
644;7375
644;7377
644;7379
645;7382
645;7384
644;7386
645;7388
644;7390
644;7392
644;7394
648;7396
645;7398
645;7400
644;7402
644;7404
645;7406
644;7408
644;7410
645;7412
645;7414
645;7416
645;7418
645;7420
644;7422
644;7424
644;7426
645;7428
645;7430
645;7432
644;7434
644;7436
645;7438
645;7440
645;7442
645;7444
645;7446
641;7448
644;7450
644;7452
644;7454
644;7456
649;7458
645;7460
645;7462
644;7464
645;7467
644;7469
644;7471
644;7473
645;7475
645;7477
645;7479
644;7481
643;7483
644;7485
644;7487
644;7489
645;7491
645;7493
643;7495
644;7497
643;7499
644;7501
644;7503
647;7505
645;7507
645;7510
644;7512
644;7514
644;7516
644;7518
644;7520
645;7522
645;7524
645;7526
645;7528
644;7530
644;7532
644;7534
645;7536
645;7538
645;7540
645;7542
644;7544
645;7546
644;7548
644;7550
645;7552
645;7554
645;7556
641;7558
644;7560
645;7562
644;7564
644;7566
650;7568
645;7570
645;7572
644;7574
645;7576
644;7578
644;7580
644;7582
645;7584
645;7586
645;7588
645;7590
645;7592
644;7595
644;7597
644;7599
645;7601
645;7603
643;7605
644;7607
644;7609
644;7611
644;7613
647;7615
645;7617
645;7619
643;7621
644;7623
645;7625
644;7627
644;7629
645;7631
645;7633
645;7635
644;7638
643;7640
644;7642
644;7644
644;7646
645;7648
645;7650
644;7652
645;7654
644;7656
644;7658
644;7660
645;7662
645;7664
645;7666
645;7668
644;7670
644;7672
644;7674
645;7676
645;7678
645;7680
645;7682
643;7684
644;7686
643;7688
645;7690
644;7692
645;7694
645;7696
645;7698
644;7700
644;7702
644;7704
644;7706
644;7708
645;7710
645;7712
645;7714
645;7716
644;7718
644;7720
644;7723
646;7725
645;7727
645;7729
643;7731
644;7733
644;7735
644;7737
644;7739
645;7741
645;7743
645;7745
644;7747
645;7749
645;7751
644;7753
645;7755
645;7757
645;7759
645;7761
644;7763
644;7766
645;7768
643;7770
645;7772
645;7774
645;7776
645;7778
644;7780
644;7782
644;7784
644;7786
645;7788
645;7790
643;7792
644;7794
644;7796
645;7798
644;7800
645;7802
645;7804
645;7806
645;7808
644;7810
644;7812
644;7814
644;7816
644;7818
645;7820
645;7822
645;7824
644;7826
644;7828
645;7830
644;7832
646;7834
645;7836
645;7838
643;7840
644;7842
644;7844
645;7846
644;7848
645;7851
645;7853
645;7855
644;7857
644;7859
644;7861
643;7863
644;7865
645;7867
645;7869
645;7871
645;7873
644;7875
644;7877
644;7879
645;7881
645;7883
645;7885
644;7887
645;7889
644;7891
644;7894
645;7896
645;7898
645;7900
641;7902
644;7904
644;7906
644;7908
645;7910
644;7912
645;7914
645;7916
644;7918
644;7920
644;7922
644;7924
644;7926
645;7928
645;7930
645;7932
645;7934
645;7936
644;7938
644;7940
645;7942
645;7944
645;7946
645;7948
644;7950
644;7952
644;7954
645;7956
643;7958
645;7960
645;7962
645;7964
645;7966
644;7968
645;7970
645;7972
644;7974
645;7976
645;7979
644;7981
644;7983
644;7985
645;7987
644;7989
645;7991
645;7993
645;7995
644;7997
644;7999
644;8001
644;8003
645;8005
645;8007
645;8009
640;8011
644;8013
644;8015
644;8017
644;8019
644;8022
645;8024
645;8026
644;8028
644;8030
644;8032
645;8034
645;8036
645;8038
645;8040
645;8042
644;8044
644;8046
645;8048
644;8050
644;8052
645;8054
645;8056
640;8058
644;8060
644;8062
644;8064
644;8066
644;8068
645;8070
645;8072
644;8074
644;8076
644;8078
644;8080
643;8082
644;8084
645;8086
645;8088
645;8090
644;8092
644;8094
644;8096
644;8098
645;8100
645;8102
645;8104
645;8107
644;8109
644;8111
644;8113
644;8115
645;8117
645;8119
639;8121
644;8123
644;8125
644;8127
644;8129
644;8131
645;8133
645;8135
644;8137
644;8139
644;8141
644;8143
644;8145
645;8147
645;8150
645;8152
644;8154
644;8156
643;8158
643;8160
644;8162
645;8164
645;8166
642;8168
644;8170
644;8172
644;8174
644;8176
650;8178
645;8180
645;8182
644;8184
644;8186
644;8188
644;8190
644;8192
645;8194
645;8196
645;8198
644;8200
644;8202
644;8204
644;8206
645;8208
645;8210
645;8212
645;8214
644;8216
644;8218
644;8220
644;8222
644;8224
645;8226
645;8228
639;8230
644;8232
644;8235
645;8237
645;8239
644;8241
645;8243
645;8245
644;8247
644;8249
645;8251
644;8253
645;8255
645;8257
645;8259
645;8261
644;8263
644;8265
644;8267
644;8269
644;8271
645;8273
645;8275
643;8278
644;8280
644;8282
644;8284
644;8286
651;8288
645;8290
645;8292
644;8294
644;8296
644;8298
645;8300
645;8302
645;8304
645;8306
645;8308
644;8310
644;8312
644;8314
644;8316
644;8318
645;8320
645;8322
645;8324
645;8326
644;8328
643;8330
644;8332
645;8334
645;8336
645;8338
639;8340
644;8342
644;8344
644;8346
644;8348
645;8350
645;8352
645;8354
644;8356
644;8358
644;8360
644;8363
643;8365
645;8367
645;8369
645;8371
644;8373
644;8375
645;8377
644;8379
645;8381
645;8383
645;8385
643;8387
644;8389
644;8391
643;8393
645;8395
650;8397
645;8399
645;8401
644;8403
645;8406
644;8408
644;8410
644;8412
645;8414
645;8416
645;8418
644;8420
644;8422
644;8424
645;8426
645;8428
645;8430
645;8432
645;8434
644;8436
645;8438
644;8440
645;8442
645;8444
645;8446
645;8448
640;8450
644;8452
644;8454
643;8456
643;8458
646;8460
645;8462
645;8464
644;8466
644;8468
645;8470
645;8472
644;8474
645;8476
645;8478
645;8480
644;8482
643;8484
644;8486
644;8488
645;8491
645;8493
645;8495
643;8497
645;8499
644;8501
644;8503
644;8505
649;8507
645;8509
645;8511
644;8513
644;8515
643;8517
643;8519
643;8521
645;8523
645;8525
645;8527
644;8529
645;8531
644;8534
644;8536
644;8538
645;8540
645;8542
645;8544
643;8546
644;8548
644;8550
644;8552
645;8554
645;8556
645;8558
644;8560
645;8562
644;8564
644;8566
644;8568
645;8570
645;8572
645;8574
644;8576
643;8578
643;8580
644;8582
644;8584
645;8586
645;8588
645;8590
645;8592
644;8594
644;8596
644;8598
644;8600
645;8602
645;8604
643;8606
644;8608
644;8610
644;8612
644;8614
648;8616
645;8619
645;8621
644;8623
644;8625
644;8627
644;8629
644;8631
645;8633
645;8635
645;8637
644;8639
644;8641
645;8643
644;8645
644;8647
645;8649
645;8651
645;8653
644;8655
644;8657
643;8659
644;8662
645;8664
645;8666
645;8668
644;8670
645;8672
645;8674
644;8676
644;8678
645;8680
645;8682
644;8684
645;8686
644;8688
644;8690
645;8692
644;8694
645;8696
645;8698
644;8700
644;8702
644;8704
644;8706
644;8708
643;8710
645;8712
645;8714
643;8716
644;8718
644;8720
644;8722
644;8724
647;8726
645;8728
645;8730
644;8732
644;8734
644;8736
644;8738
644;8740
645;8742
645;8744
645;8747
644;8749
644;8751
644;8753
645;8755
645;8757
645;8759
645;8761
644;8763
644;8765
644;8767
644;8769
644;8771
645;8773
645;8775
645;8777
643;8779
644;8781
644;8783
645;8785
644;8787
645;8790
645;8792
644;8794
644;8796
643;8798
644;8800
644;8802
645;8804
645;8806
645;8808
644;8810
644;8812
644;8814
644;8816
644;8818
645;8820
645;8822
645;8824
644;8826
645;8828
645;8830
645;8832
644;8834
646;8836
645;8838
645;8840
644;8842
644;8844
644;8846
644;8848
644;8850
645;8852
645;8854
645;8856
644;8858
644;8860
644;8862
644;8864
644;8866
645;8868
645;8870
645;8872
644;8875
644;8877
644;8879
644;8881
645;8883
645;8885
645;8887
644;8889
644;8891
644;8893
644;8895
644;8897
645;8899
645;8901
644;8903
643;8905
645;8907
644;8909
644;8911
644;8913
645;8915
645;8918
644;8920
644;8922
644;8924
644;8926
644;8928
645;8930
645;8932
645;8934
645;8936
645;8938
644;8940
644;8942
645;8944
645;8946
645;8948
640;8950
644;8952
644;8954
645;8956
645;8958
645;8960
645;8962
645;8964
645;8966
645;8968
645;8970
644;8972
644;8974
644;8976
645;8978
645;8980
644;8982
644;8984
644;8986
645;8988
643;8990
645;8992
645;8994
645;8996
644;8998
645;9000
644;9003
644;9005
644;9007
645;9009
645;9011
642;9013
644;9015
644;9017
644;9019
644;9021
644;9023
645;9025
645;9027
645;9029
644;9031
644;9033
644;9035
644;9037
645;9039
645;9041
645;9043
645;9046
644;9048
644;9050
644;9052
644;9054
645;9056
645;9058
641;9060
644;9062
644;9064
644;9066
645;9068
646;9070
645;9072
645;9074
644;9076
645;9078
644;9080
644;9082
644;9084
645;9086
645;9088
645;9090
645;9092
644;9094
645;9096
644;9098
644;9100
645;9102
645;9104
645;9106
644;9108
644;9110
644;9112
644;9114
644;9116
645;9118
645;9120
641;9122
645;9124
644;9126
643;9128
644;9131
644;9133
645;9135
645;9137
644;9139
644;9141
644;9143
644;9145
644;9147
645;9149
645;9151
645;9153
644;9155
643;9157
644;9159
644;9161
643;9163
645;9165
645;9167
641;9169
644;9171
644;9174
644;9176
644;9178
647;9180
645;9182
645;9184
644;9186
644;9188
644;9190
645;9192
645;9194
645;9196
645;9198
645;9200
644;9202
645;9204
645;9206
644;9208
644;9210
645;9212
645;9214
645;9216
644;9218
645;9220
644;9222
645;9224
645;9226
645;9228
645;9230
640;9232
644;9234
645;9236
644;9238
644;9240
643;9242
645;9244
645;9246
645;9248
644;9250
645;9252
644;9254
645;9256
645;9259
645;9261
645;9263
644;9265
644;9267
644;9269
644;9271
644;9273
645;9275
645;9277
642;9279
644;9281
644;9283
645;9285
644;9287
650;9289
645;9291
645;9293
644;9295
644;9297
644;9299
644;9302
644;9304
645;9306
645;9308
645;9310
644;9312
644;9314
644;9316
644;9318
644;9320
645;9322
645;9324
644;9326
645;9328
645;9330
644;9332
644;9334
647;9336
645;9338
645;9340
644;9342
645;9344
645;9346
645;9348
644;9350
644;9352
645;9354
645;9356
644;9358
644;9360
644;9362
643;9364
644;9366
645;9368
645;9370
645;9372
644;9374
645;9376
644;9378
644;9380
644;9382
645;9384
645;9387
642;9389
644;9391
644;9393
644;9395
644;9397
651;9399
645;9401
645;9403
645;9405
644;9407
644;9409
645;9411
644;9413
645;9415
645;9417
645;9419
644;9421
644;9423
644;9425
644;9427
644;9430
645;9432
645;9434
644;9436
644;9438
644;9440
645;9442
644;9444
646;9446
645;9448
645;9450
644;9452
644;9454
644;9456
644;9458
645;9460
645;9462
645;9464
645;9466
644;9468
643;9470
644;9472
645;9474
644;9476
645;9478
645;9480
645;9482
644;9484
644;9486
644;9488
644;9490
644;9492
645;9494
645;9496
642;9498
643;9500
645;9502
644;9504
644;9506
650;9508
645;9510
645;9512
644;9515
643;9517
644;9519
645;9521
644;9523
645;9525
645;9527
645;9529
644;9531
644;9533
644;9535
644;9537
644;9539
645;9541
645;9543
644;9545
644;9547
644;9549
644;9551
644;9553
646;9555
645;9558
645;9560
644;9562
643;9564
644;9566
645;9568
644;9570
645;9572
645;9574
645;9576
644;9578
644;9580
644;9582
644;9584
644;9586
645;9588
645;9590
644;9592
644;9594
644;9596
644;9598
643;9600
644;9602
645;9604
645;9606
644;9608
645;9610
644;9612
644;9614
644;9616
650;9618
645;9620
645;9622
643;9624
644;9626
644;9628
644;9630
645;9632
645;9634
645;9636
645;9638
644;9640
644;9643
643;9645
643;9647
644;9649
645;9651
645;9653
645;9655
644;9657
644;9659
644;9661
644;9663
645;9665
645;9667
645;9669
644;9671
644;9673
644;9675
644;9677
644;9679
645;9681
645;9683
645;9686
644;9688
644;9690
644;9692
645;9694
645;9696
645;9698
645;9700
645;9702
644;9704
644;9706
644;9708
645;9710
645;9712
645;9714
645;9716
644;9718
645;9720
644;9722
644;9724
644;9726
648;9728
645;9730
645;9732
644;9734
645;9736
644;9738
644;9740
644;9742
645;9744
645;9746
645;9748
644;9750
644;9752
644;9754
644;9756
644;9758
645;9760
645;9762
644;9764
644;9766
645;9768
644;9771
644;9773
645;9775
645;9777
645;9779
645;9781
645;9783
644;9785
644;9787
644;9789
645;9791
645;9793
645;9795
644;9797
644;9799
645;9801
645;9803
644;9805
645;9807
645;9809
644;9811
644;9814
645;9816
644;9818
645;9820
645;9822
645;9824
645;9826
644;9828
643;9830
644;9832
645;9834
645;9836
645;9838
645;9840
639;9842
644;9844
644;9846
643;9848
644;9850
644;9852
645;9854
645;9856
645;9858
645;9860
644;9862
644;9864
645;9866
644;9868
645;9870
645;9872
645;9874
644;9876
644;9878
644;9880
644;9882
645;9884
645;9886
645;9888
644;9890
644;9892
645;9894
644;9896
645;9899
645;9901
645;9903
644;9905
644;9907
644;9909
644;9911
644;9913
644;9915
645;9917
645;9919
645;9921
644;9923
644;9925
644;9927
644;9929
645;9931
645;9933
645;9935
644;9937
644;9939
644;9942
645;9944
644;9946
645;9948
645;9950
640;9952
644;9954
644;9956
644;9958
645;9960
644;9962
645;9964
645;9966
645;9968
643;9970
644;9972
644;9974
644;9976
645;9978
645;9980
645;9982
644;9984
644;9986
644;9988
644;9990
644;9992
645;9994
645;9996
645;9998
644;10000
645;10002
644;10004
644;10006
645;10008
645;10010
645;10012
644;10014
645;10016
645;10018
644;10020
644;10022
644;10024
645;10027
645;10029
644;10031
644;10033
644;10035
644;10037
644;10039
645;10041
645;10043
645;10045
644;10047
645;10049
644;10051
644;10053
645;10055
645;10057
645;10059
641;10061
644;10063
644;10065
644;10067
644;10070
645;10072
645;10074
645;10076
644;10078
644;10080
645;10082
644;10084
644;10086
645;10088
645;10090
645;10092
644;10094
645;10096
644;10098
645;10100
644;10102
645;10104
645;10106
643;10108
644;10110
644;10112
644;10114
644;10116
644;10118
645;10120
645;10122
641;10124
644;10126
644;10128
643;10130
644;10132
645;10134
645;10136
645;10138
645;10140
644;10142
644;10144
644;10146
644;10148
645;10150
645;10152
645;10155
645;10157
645;10159
644;10161
644;10163
644;10165
645;10167
645;10169
641;10171
644;10173
644;10175
644;10177
644;10179
645;10181
645;10183
645;10185
644;10187
644;10189
644;10191
645;10193
644;10195
645;10198
645;10200
645;10202
644;10204
643;10206
645;10208
644;10210
645;10212
645;10214
645;10216
643;10218
644;10220
644;10222
644;10224
644;10226
649;10228
645;10230
645;10232
644;10234
645;10236
644;10238
644;10240
645;10242
644;10244
645;10246
645;10248
645;10250
644;10252
644;10254
644;10256
644;10258
645;10260
645;10262
645;10264
644;10266
644;10268
644;10270
644;10272
644;10274
645;10276
645;10278
641;10280
644;10283
644;10285
644;10287
644;10289
648;10291
645;10293
645;10295
644;10297
644;10299
644;10301
644;10303
644;10305
645;10307
645;10309
645;10311
644;10313
645;10315
644;10317
644;10319
644;10321
645;10323
645;10326
643;10328
645;10330
644;10332
645;10334
644;10336
648;10338
645;10340
645;10342
644;10344
645;10346
644;10348
644;10350
644;10352
645;10354
645;10356
645;10358
644;10360
644;10362
645;10364
644;10366
643;10368
645;10370
645;10372
645;10374
645;10376
644;10378
645;10380
644;10382
645;10384
645;10386
645;10388
642;10390
643;10392
644;10394
644;10396
645;10398
651;10400
645;10402
645;10404
644;10406
644;10408
644;10411
644;10413
645;10415
645;10417
645;10419
645;10421
645;10423
644;10425
644;10427
644;10429
644;10431
645;10433
645;10435
644;10437
644;10439
644;10441
644;10443
644;10445
647;10447
645;10449
645;10451
644;10454
645;10456
645;10458
645;10460
644;10462
645;10464
645;10466
645;10468
644;10470
645;10472
644;10474
644;10476
644;10478
645;10480
645;10482
645;10484
644;10486
644;10488
645;10490
645;10492
645;10494
645;10496
645;10498
643;10500
644;10502
644;10504
644;10506
644;10508
651;10510
645;10512
645;10514
644;10516
644;10518
644;10520
644;10522
644;10524
645;10526
645;10528
645;10530
645;10532
644;10534
644;10536
644;10539
644;10541
645;10543
645;10545
644;10547
645;10549
645;10551
645;10553
644;10555
646;10557
645;10559
645;10561
644;10563
644;10565
644;10567
644;10569
644;10571
645;10573
645;10575
645;10577
644;10579
645;10582
644;10584
644;10586
644;10588
645;10590
645;10592
644;10594
645;10596
645;10598
644;10600
644;10602
645;10604
645;10606
645;10608
644;10610
644;10612
643;10614
644;10616
645;10618
645;10620
645;10622
645;10624
645;10626
644;10628
644;10630
644;10632
644;10634
645;10636
645;10638
645;10640
644;10642
644;10644
645;10646
645;10648
644;10650
645;10652
645;10654
645;10656
644;10658
644;10660
645;10662
644;10664
646;10667
645;10669
645;10671
644;10673
644;10675
643;10677
643;10679
644;10681
645;10683
645;10685
645;10687
644;10689
644;10691
644;10693
644;10695
644;10697
645;10699
645;10701
644;10703
644;10705
644;10707
645;10710
644;10712
645;10714
645;10716
645;10718
644;10720
644;10722
644;10724
644;10726
644;10728
645;10730
645;10732
640;10734
645;10736
645;10738
644;10740
644;10742
644;10744
645;10746
645;10748
645;10750
644;10752
644;10754
644;10756
644;10758
643;10760
645;10762
645;10764
645;10766
645;10768
644;10770
644;10772
643;10774
645;10776
645;10778
645;10780
643;10782
644;10784
645;10786
645;10788
645;10790
645;10792
645;10795
645;10797
644;10799
644;10801
643;10803
645;10805
645;10807
645;10809
645;10811
645;10813
645;10815
645;10817
644;10819
644;10821
645;10823
645;10825
645;10827
643;10829
644;10831
643;10833
645;10835
645;10838
645;10840
645;10842
640;10844
645;10846
644;10848
644;10850
645;10852
644;10854
645;10856
645;10858
644;10860
643;10862
644;10864
644;10866
644;10868
645;10870
645;10872
645;10874
645;10876
645;10878
645;10880
644;10882
645;10884
645;10886
645;10888
645;10890
644;10892
644;10894
644;10896
644;10898
644;10900
645;10902
645;10904
644;10906
644;10908
643;10910
644;10912
644;10914
645;10916
645;10918
645;10920
644;10923
644;10925
644;10927
644;10929
645;10931
645;10933
645;10935
645;10937
645;10939
645;10941
645;10943
644;10945
644;10947
645;10949
645;10951
639;10953
644;10955
644;10957
644;10959
644;10961
644;10963
645;10966
645;10968
645;10970
644;10972
644;10974
644;10976
644;10978
645;10980
645;10982
645;10984
645;10986
644;10988
644;10990
645;10992
644;10994
645;10996
645;10998
642;11000
644;11002
644;11004
644;11006
644;11008
644;11010
645;11012
645;11014
644;11016
644;11018
644;11020
644;11022
644;11024
644;11026
645;11028
645;11030
645;11032
645;11034
644;11036
645;11038
644;11040
645;11042
645;11044
645;11046
644;11048
645;11051
643;11053
644;11055
645;11057
645;11059
645;11061
639;11063
644;11065
644;11067
644;11069
644;11071
644;11073
645;11075
645;11077
645;11079
644;11081
645;11083
645;11085
644;11087
645;11089
645;11091
645;11094
644;11096
644;11098
645;11100
644;11102
645;11104
645;11106
645;11108
643;11110
644;11112
644;11114
644;11116
644;11118
650;11120
645;11122
645;11124
643;11126
644;11128
643;11130
644;11132
644;11134
644;11136
645;11138
645;11140
644;11142
644;11144
644;11146
644;11148
644;11150
645;11152
645;11154
645;11156
644;11158
644;11160
645;11162
644;11164
644;11166
645;11168
645;11170
640;11172
644;11174
644;11176
643;11179
644;11181
645;11183
645;11185
645;11187
644;11189
644;11191
644;11193
645;11195
644;11197
645;11199
645;11201
645;11203
644;11205
644;11207
644;11209
645;11211
645;11213
645;11215
645;11217
643;11219
644;11222
644;11224
644;11226
644;11228
650;11230
645;11232
645;11234
644;11236
644;11238
643;11240
644;11242
645;11244
645;11246
645;11248
645;11250
644;11252
645;11254
644;11256
644;11258
644;11260
645;11262
645;11264
645;11266
645;11268
645;11270
645;11272
644;11274
644;11276
645;11278
645;11280
641;11282
644;11284
644;11286
644;11288
644;11290
646;11292
645;11294
645;11296
644;11298
644;11300
644;11302
644;11304
644;11307
645;11309
645;11311
645;11313
644;11315
644;11317
645;11319
644;11321
645;11323
645;11325
645;11327
643;11329
645;11331
644;11333
644;11335
644;11337
649;11339
645;11341
645;11343
644;11345
643;11347
644;11350
644;11352
645;11354
645;11356
645;11358
645;11360
644;11362
644;11364
644;11366
644;11368
644;11370
645;11372
645;11374
645;11376
644;11378
644;11380
643;11382
645;11384
645;11386
645;11388
645;11390
641;11392
644;11394
645;11396
644;11398
644;11400
648;11402
645;11404
645;11406
644;11408
644;11410
644;11412
644;11414
644;11416
645;11418
645;11420
645;11422
644;11424
644;11426
644;11428
644;11430
645;11432
645;11435
645;11437
643;11439
644;11441
644;11443
644;11445
644;11447
647;11449
645;11451
645;11453
645;11455
645;11457
644;11459
645;11461
644;11463
645;11465
645;11467
645;11469
644;11471
644;11473
644;11475
644;11478
644;11480
645;11482
645;11484
645;11486
644;11488
644;11490
645;11492
645;11494
645;11496
645;11498
645;11500
643;11502
645;11504
644;11506
644;11508
644;11510
645;11512
645;11514
644;11516
644;11518
644;11520
644;11522
644;11524
645;11526
645;11528
645;11530
645;11532
644;11534
645;11536
643;11538
644;11540
645;11542
645;11544
645;11546
644;11548
645;11550
645;11552
644;11554
644;11556
647;11558
645;11560
645;11563
644;11565
644;11567
644;11569
643;11571
644;11573
645;11575
645;11577
645;11579
644;11581
644;11583
644;11585
644;11587
644;11589
645;11591
645;11593
645;11595
644;11597
644;11599
644;11601
644;11603
645;11606
645;11608
645;11610
644;11612
645;11614
645;11616
644;11618
644;11620
645;11622
645;11624
644;11626
644;11628
644;11630
645;11632
644;11634
645;11636
645;11638
645;11640
645;11642
644;11644
644;11646
644;11648
644;11650
644;11652
645;11654
645;11656
645;11658
645;11660
644;11662
645;11664
644;11666
646;11668
645;11670
645;11672
644;11674
644;11676
644;11678
644;11680
645;11682
645;11684
645;11686
645;11688
645;11691
645;11693
644;11695
645;11697
644;11699
645;11701
645;11703
645;11705
643;11707
644;11709
644;11711
644;11713
645;11715
645;11717
645;11719
644;11721
644;11723
643;11725
644;11727
644;11729
645;11731
645;11734
642;11736
644;11738
644;11740
645;11742
644;11744
644;11746
645;11748
645;11750
644;11752
644;11754
645;11756
644;11758
644;11760
645;11762
645;11764
645;11766
644;11768
644;11770
644;11772
644;11774
643;11776
645;11778
645;11780
645;11782
644;11784
644;11786
644;11788
644;11790
644;11792
645;11794
645;11796
645;11798
643;11800
644;11802
644;11804
645;11806
644;11808
645;11810
645;11812
645;11814
644;11816
644;11819
644;11821
644;11823
645;11825
645;11827
645;11829
644;11831
644;11833
644;11835
644;11837
644;11839
645;11841
645;11843
641;11845
645;11847
644;11849
644;11851
644;11853
643;11855
645;11857
645;11859
644;11862
645;11864
644;11866
644;11868
644;11870
645;11872
645;11874
645;11876
644;11878
644;11880
644;11882
643;11884
644;11886
645;11888
645;11890
641;11892
644;11894
644;11896
644;11898
644;11900
645;11902
645;11904
645;11906
645;11908
644;11910
645;11912
644;11914
645;11916
644;11918
645;11920
645;11922
645;11924
644;11926
645;11928
644;11930
644;11932
645;11934
645;11936
645;11938
645;11940
644;11942
644;11944
644;11947
644;11949
645;11951
645;11953
639;11955
645;11957
645;11959
645;11961
645;11963
644;11965
645;11967
645;11969
644;11971
644;11973
644;11975
644;11977
644;11979
645;11981
645;11983
645;11985
645;11987
644;11990
645;11992
645;11994
645;11996
645;11998
645;12000
642;12002
644;12004
644;12006
644;12008
644;12010
649;12012
645;12014
645;12016
644;12018
644;12020
644;12022
644;12024
644;12026
645;12028
645;12030
645;12032
645;12034
644;12036
644;12038
644;12040
644;12042
645;12044
645;12046
645;12048
644;12050
644;12052
644;12054
644;12056
644;12058
645;12060
645;12062
639;12064
645;12066
645;12068
645;12070
644;12072
645;12075
645;12077
645;12079
643;12081
644;12083
644;12085
644;12087
644;12089
645;12091
645;12093
645;12095
644;12097
644;12099
644;12101
645;12103
644;12105
645;12107
645;12109
642;12111
645;12113
644;12115
644;12118
644;12120
651;12122
645;12124
645;12126
644;12128
644;12130
645;12132
644;12134
644;12136
645;12138
645;12140
645;12142
645;12144
644;12146
644;12148
644;12150
644;12152
645;12154
645;12156
644;12158
644;12160
644;12162
644;12164
644;12166
644;12168
645;12170
645;12172
640;12174
644;12176
645;12178
645;12180
644;12182
644;12184
645;12186
645;12188
644;12190
644;12192
644;12194
645;12196
644;12198
645;12200
645;12203
645;12205
644;12207
644;12209
644;12211
644;12213
645;12215
645;12217
645;12219
642;12221
644;12223
644;12225
644;12227
644;12229
651;12231
645;12233
645;12235
643;12237
644;12239
644;12241
645;12243
645;12246
645;12248
645;12250
645;12252
645;12254
644;12256
645;12258
645;12260
644;12262
645;12264
645;12266
645;12268
644;12270
644;12272
644;12274
645;12276
646;12278
645;12280
645;12282
645;12284
644;12286
644;12288
644;12290
644;12292
645;12294
645;12296
645;12298
645;12300
645;12302
644;12304
644;12306
644;12308
645;12310
645;12312
645;12314
644;12316
644;12318
644;12320
644;12322
644;12324
645;12326
645;12328
643;12331
644;12333
645;12335
644;12337
644;12339
650;12341
645;12343
645;12345
644;12347
644;12349
645;12351
644;12353
644;12355
645;12357
645;12359
645;12361
644;12363
644;12365
644;12367
644;12369
644;12371
645;12374
645;12376
645;12378
644;12380
644;12382
644;12384
644;12386
645;12388
645;12390
645;12392
645;12394
644;12396
644;12398
644;12400
644;12402
645;12404
645;12406
645;12408
644;12410
644;12412
644;12414
643;12416
645;12418
645;12420
645;12422
645;12424
645;12426
644;12428
644;12430
644;12432
644;12434
645;12436
645;12438
643;12440
643;12442
644;12444
644;12446
644;12448
649;12450
645;12452
645;12454
644;12456
644;12459
644;12461
645;12463
644;12465
645;12467
645;12469
645;12471
644;12473
644;12475
645;12477
644;12479
644;12481
645;12483
645;12485
644;12487
644;12489
644;12491
644;12493
644;12495
645;12497
645;12499
645;12502
644;12504
644;12506
644;12508
644;12510
645;12512
645;12514
645;12516
645;12518
645;12520
644;12522
644;12524
644;12526
644;12528
645;12530
645;12532
645;12534
644;12536
644;12538
644;12540
644;12542
644;12544
645;12546
645;12548
643;12550
645;12552
645;12554
644;12556
644;12558
648;12560
645;12562
645;12564
644;12566
644;12568
645;12570
644;12572
645;12574
645;12576
645;12578
645;12580
645;12582
645;12584
644;12587
644;12589
644;12591
645;12593
645;12595
645;12597
644;12599
645;12601
644;12603
644;12605
645;12607
645;12609
645;12611
644;12613
644;12615
644;12617
645;12619
645;12621
645;12623
645;12625
644;12627
644;12630
644;12632
644;12634
644;12636
644;12638
645;12640
645;12642
644;12644
644;12646
644;12648
644;12650
644;12652
645;12654
645;12656
645;12658
644;12660
645;12662
644;12664
644;12666
644;12668
645;12670
645;12672
645;12674
645;12676
644;12678
645;12680
644;12682
644;12684
645;12686
645;12688
645;12690
644;12692
644;12694
644;12696
644;12698
644;12700
645;12702
645;12704
645;12706
644;12708
644;12710
644;12712
644;12715
645;12717
645;12719
645;12721
644;12723
644;12725
644;12727
643;12729
644;12731
645;12733
645;12735
644;12737
644;12739
644;12741
643;12743
644;12745
643;12747
645;12749
645;12751
645;12753
644;12755
644;12758
644;12760
644;12762
645;12764
645;12766
645;12768
643;12770
644;12772
645;12774
644;12776
644;12778
645;12780
645;12782
639;12784
644;12786
645;12788
644;12790
644;12792
645;12794
645;12796
645;12798
645;12800
644;12802
644;12804
644;12806
644;12808
645;12810
645;12812
645;12814
645;12816
644;12818
644;12820
645;12822
644;12824
645;12826
645;12828
645;12830
644;12832
644;12834
644;12836
644;12838
645;12840
645;12843
645;12845
642;12847
645;12849
644;12851
644;12853
644;12855
644;12857
645;12859
645;12861
644;12863
645;12865
644;12867
644;12869
644;12871
645;12873
645;12875
645;12877
644;12879
644;12881
644;12883
644;12886
645;12888
645;12890
645;12892
641;12894
644;12896
645;12898
644;12900
644;12902
645;12904
645;12906
645;12908
644;12910
644;12912
644;12914
644;12916
644;12918
645;12920
645;12922
645;12924
644;12926
644;12928
644;12930
645;12932
644;12934
645;12936
645;12938
645;12940
644;12942
644;12944
643;12946
644;12948
644;12950
645;12952
645;12954
641;12956
644;12958
644;12960
644;12962
644;12964
644;12966
645;12968
645;12971
644;12973
645;12975
645;12977
644;12979
644;12981
645;12983
645;12985
645;12987
644;12989
644;12991
644;12993
644;12995
644;12997
645;12999
645;13001
641;13003
645;13005
645;13007
645;13009
645;13011
646;13014
645;13016
645;13018
644;13020
645;13022
644;13024
644;13026
645;13028
645;13030
645;13032
645;13034
644;13036
644;13038
644;13040
645;13042
644;13044
645;13046
645;13048
644;13050
644;13052
645;13054
645;13056
644;13058
644;13060
645;13062
645;13064
639;13066
645;13068
644;13070
644;13072
644;13074
644;13076
645;13078
645;13080
644;13082
644;13084
644;13086
644;13088
645;13090
645;13092
645;13094
645;13096
644;13099
644;13101
644;13103
644;13105
644;13107
645;13109
645;13111
641;13113
644;13115
644;13117
644;13119
645;13121
650;13123
645;13125
645;13127
644;13129
645;13131
644;13133
645;13135
644;13137
645;13139
645;13142
645;13144
645;13146
644;13148
644;13150
644;13152
644;13154
645;13156
645;13158
643;13160
644;13162
644;13164
644;13166
645;13168
647;13170
645;13172
645;13174
644;13176
645;13178
644;13180
644;13182
644;13184
644;13186
645;13188
645;13190
644;13192
644;13194
644;13196
644;13198
644;13200
645;13202
645;13204
645;13206
644;13208
645;13210
643;13212
644;13214
644;13216
645;13218
645;13220
642;13222
644;13224
644;13227
644;13229
644;13231
651;13233
645;13235
645;13237
644;13239
644;13241
644;13243
644;13245
644;13247
645;13249
645;13251
645;13253
644;13255
645;13257
644;13259
644;13261
644;13263
645;13265
645;13267
644;13270
644;13272
644;13274
645;13276
645;13278
646;13280
645;13282
645;13284
644;13286
644;13288
644;13290
644;13292
644;13294
645;13296
645;13298
645;13300
645;13302
645;13304
644;13306
645;13308
645;13310
645;13312
645;13314
645;13316
644;13318
644;13320
645;13322
645;13324
645;13326
645;13328
645;13330
643;13332
644;13334
645;13336
644;13338
644;13340
650;13342
645;13344
645;13346
644;13348
644;13350
644;13352
644;13355
644;13357
645;13359
645;13361
645;13363
644;13365
644;13367
644;13369
645;13371
645;13373
645;13375
645;13377
645;13379
644;13381
644;13383
644;13385
644;13387
646;13389
645;13391
645;13393
644;13395
644;13398
644;13400
645;13402
644;13404
645;13406
645;13408
645;13410
644;13412
644;13414
644;13416
644;13418
644;13420
645;13422
645;13424
645;13426
644;13428
644;13430
645;13432
644;13434
645;13436
645;13438
645;13440
643;13442
644;13444
644;13446
644;13448
644;13450
649;13452
645;13454
645;13456
645;13458
644;13460
645;13462
644;13464
645;13466
645;13468
645;13470
645;13472
644;13474
645;13476
644;13478
645;13480
645;13483
645;13485
645;13487
645;13489
644;13491
645;13493
644;13495
644;13497
645;13499
645;13501
645;13503
643;13505
644;13507
644;13509
644;13511
644;13513
645;13515
645;13517
645;13519
644;13521
644;13523
644;13526
643;13528
643;13530
645;13532
645;13534
645;13536
645;13538
644;13540
644;13542
644;13544
645;13546
645;13548
645;13550
644;13552
644;13554
645;13556
645;13558
645;13560
645;13562
645;13564
639;13566
644;13568
644;13570
644;13572
643;13574
643;13576
645;13578
645;13580
645;13582
644;13584
645;13586
645;13588
644;13590
644;13592
645;13594
645;13596
645;13598
644;13600
644;13602
644;13604
644;13606
645;13608
645;13611
645;13613
644;13615
644;13617
645;13619
645;13621
644;13623
645;13625
645;13627
644;13629
644;13631
645;13633
644;13635
644;13637
644;13639
645;13641
645;13643
644;13645
644;13647
645;13649
644;13651
644;13654
645;13656
645;13658
645;13660
644;13662
644;13664
645;13666
644;13668
644;13670
645;13672
645;13674
640;13676
644;13678
644;13680
645;13682
645;13684
644;13686
645;13688
645;13690
644;13692
645;13694
643;13696
644;13698
644;13700
644;13702
645;13704
645;13706
645;13708
644;13710
644;13712
644;13714
644;13716
645;13718
645;13720
645;13722
645;13724
645;13726
645;13728
644;13730
645;13732
645;13734
645;13736
644;13739
644;13741
644;13743
643;13745
644;13747
644;13749
645;13751
645;13753
645;13755
644;13757
644;13759
644;13761
644;13763
645;13765
645;13767
645;13769
644;13771
644;13773
644;13775
644;13777
645;13779
645;13782
645;13784
640;13786
644;13788
644;13790
644;13792
644;13794
644;13796
645;13798
645;13800
645;13802
644;13804
645;13806
645;13808
644;13810
645;13812
645;13814
645;13816
643;13818
644;13820
645;13822
645;13824
645;13826
645;13828
645;13830
645;13832
644;13834
645;13836
644;13838
644;13840
644;13842
645;13844
645;13846
642;13848
644;13850
644;13852
644;13854
644;13856
645;13858
645;13860
645;13862
644;13864
644;13867
645;13869
644;13871
645;13873
645;13875
645;13877
645;13879
644;13881
644;13883
644;13885
644;13887
644;13889
645;13891
645;13893
641;13895
644;13897
644;13899
644;13901
644;13903
645;13905
645;13907
645;13910
644;13912
644;13914
644;13916
645;13918
644;13920
645;13922
645;13924
645;13926
644;13928
644;13930
644;13932
644;13934
644;13936
645;13938
645;13940
644;13942
645;13944
645;13946
644;13948
644;13950
644;13952
645;13954
645;13956
641;13958
643;13960
645;13962
644;13964
645;13966
644;13968
645;13970
645;13972
645;13974
645;13976
645;13978
644;13980
643;13982
645;13984
645;13986
645;13988
645;13990
644;13992
644;13995
644;13997
644;13999
645;14001
645;14003
641;14005
645;14007
644;14009
644;14011
644;14013
646;14015
645;14017
645;14019
644;14021
644;14023
643;14025
644;14027
644;14029
645;14031
645;14033
645;14035
644;14038
644;14040
644;14042
644;14044
644;14046
645;14048
645;14050
643;14052
644;14054
644;14056
643;14058
644;14060
648;14062
645;14064
645;14066
644;14068
644;14070
644;14072
644;14074
644;14076
645;14078
645;14080
645;14082
644;14084
644;14086
645;14088
645;14090
644;14092
645;14094
645;14096
645;14098
644;14100
645;14102
644;14104
644;14106
644;14108
645;14110
645;14112
642;14114
645;14116
645;14118
644;14120
644;14123
650;14125
645;14127
645;14129
644;14131
644;14133
644;14135
645;14137
644;14139
645;14141
645;14143
645;14145
644;14147
644;14149
644;14151
644;14153
645;14155
645;14157
645;14159
644;14161
643;14163
645;14166
644;14168
644;14170
647;14172
645;14174
645;14176
644;14178
644;14180
644;14182
644;14184
644;14186
645;14188
645;14190
645;14192
644;14194
644;14196
644;14198
644;14200
643;14202
645;14204
645;14206
645;14208
643;14210
644;14212
644;14214
645;14216
644;14218
645;14220
645;14222
642;14224
644;14226
644;14228
645;14230
644;14232
651;14234
645;14236
645;14238
644;14240
645;14242
644;14244
644;14246
644;14248
645;14251
645;14253
645;14255
644;14257
644;14259
644;14261
644;14263
644;14265
645;14267
645;14269
644;14271
645;14273
643;14275
645;14277
644;14279
646;14281
645;14283
645;14285
644;14287
644;14289
644;14291
643;14294
644;14296
645;14298
645;14300
645;14302
645;14304
644;14306
644;14308
645;14310
644;14312
645;14314
645;14316
644;14318
644;14320
644;14322
644;14324
644;14326
645;14328
645;14330
645;14332
644;14334
644;14336
643;14338
643;14340
644;14342
650;14344
645;14346
645;14348
645;14350
644;14352
644;14354
644;14356
644;14358
645;14360
645;14362
645;14364
644;14366
645;14368
644;14370
645;14372
644;14374
645;14376
645;14379
645;14381
644;14383
644;14385
645;14387
643;14389
645;14391
645;14393
645;14395
644;14397
644;14399
644;14401
644;14403
644;14405
645;14407
645;14409
645;14411
645;14413
644;14415
644;14417
644;14419
644;14422
645;14424
645;14426
645;14428
644;14430
643;14432
644;14434
645;14436
645;14438
645;14440
645;14442
644;14444
644;14446
644;14448
644;14450
644;14452
645;14454
645;14456
641;14458
645;14460
644;14462
644;14464
645;14466
643;14468
645;14470
645;14472
645;14474
645;14476
644;14478
644;14480
644;14482
644;14484
645;14486
645;14488
645;14490
643;14492
645;14494
644;14496
644;14498
645;14500
645;14502
645;14504
644;14507
644;14509
644;14511
644;14513
644;14515
645;14517
645;14519
645;14521
644;14523
644;14525
645;14527
644;14529
644;14531
645;14533
645;14535
645;14537
644;14539
644;14541
645;14543
644;14545
645;14547
645;14550
645;14552
644;14554
644;14556
644;14558
645;14560
644;14562
645;14564
645;14566
640;14568
644;14570
645;14572
645;14574
644;14576
645;14578
645;14580
645;14582
644;14584
644;14586
644;14588
644;14590
645;14592
644;14594
645;14596
645;14598
645;14600
644;14602
644;14604
645;14606
645;14608
645;14610
645;14612
645;14614
644;14616
645;14618
645;14620
644;14622
644;14624
645;14626
645;14628
645;14630
644;14632
644;14635
644;14637
644;14639
645;14641
645;14643
645;14645
645;14647
645;14649
644;14651
644;14653
644;14655
645;14657
645;14659
645;14661
645;14663
644;14665
644;14667
644;14669
645;14671
645;14673
645;14675
639;14678
645;14680
644;14682
645;14684
644;14686
644;14688
645;14690
645;14692
644;14694
645;14696
644;14698
644;14700
644;14702
645;14704
645;14706
645;14708
644;14710
644;14712
644;14714
644;14716
644;14718
645;14720
645;14722
645;14724
644;14726
645;14728
644;14730
644;14732
644;14734
645;14736
645;14738
644;14740
644;14742
644;14744
644;14746
645;14748
644;14750
645;14752
645;14754
644;14756
644;14758
645;14760
644;14763
644;14765
645;14767
645;14769
645;14771
644;14773
644;14775
644;14777
644;14779
645;14781
645;14783
645;14785
640;14787
645;14789
644;14791
644;14793
645;14795
645;14797
645;14799
645;14801
645;14803
643;14806
644;14808
644;14810
644;14812
645;14814
645;14816
645;14818
644;14820
644;14822
644;14824
645;14826
644;14828
645;14830
645;14832
642;14834
645;14836
644;14838
645;14840
645;14842
651;14844
645;14846
645;14848
644;14850
644;14852
645;14854
644;14856
644;14858
644;14860
645;14862
645;14864
644;14866
644;14868
644;14870
643;14872
644;14874
645;14876
645;14878
645;14880
644;14882
644;14884
645;14886
644;14888
644;14891
645;14893
645;14895
640;14897
643;14899
644;14901
644;14903
644;14905
645;14907
645;14909
645;14911
645;14913
644;14915
644;14917
645;14919
644;14921
645;14923
645;14925
645;14927
645;14929
645;14931
645;14934
644;14936
644;14938
645;14940
645;14942
642;14944
645;14946
644;14948
644;14950
645;14952
650;14954
645;14956
645;14958
644;14960
644;14962
644;14964
644;14966
645;14968
645;14970
645;14972
645;14974
644;14976
644;14978
644;14980
645;14982
644;14984
645;14986
645;14988
645;14990
643;14992
644;14994
644;14996
644;14998
645;15000
645;15002
645;15004
640;15006
644;15008
645;15010
645;15012
644;15014
646;15016
645;15019
645;15021
644;15023
644;15025
645;15027
645;15029
644;15031
645;15033
645;15035
645;15037
644;15039
644;15041
644;15043
644;15045
645;15047
645;15049
645;15051
643;15053
645;15055
645;15057
644;15059
644;15062
649;15064
645;15066
645;15068
644;15070
644;15072
645;15074
644;15076
645;15078
645;15080
645;15082
645;15084
644;15086
644;15088
645;15090
644;15092
644;15094
645;15096
645;15098
645;15100
644;15102
644;15104
644;15106
644;15108
643;15110
645;15112
645;15114
641;15116
644;15118
644;15120
644;15122
644;15124
646;15126
645;15128
645;15130
644;15132
644;15134
644;15136
644;15138
644;15140
645;15142
645;15144
645;15147
644;15149
644;15151
644;15153
644;15155
644;15157
645;15159
645;15161
644;15163
644;15165
644;15167
644;15169
644;15171
648;15173
645;15175
645;15177
643;15179
644;15181
645;15183
644;15185
645;15187
645;15190
645;15192
645;15194
645;15196
644;15198
645;15200
644;15202
644;15204
645;15206
645;15208
645;15210
644;15212
644;15214
643;15216
644;15218
645;15220
645;15222
645;15224
645;15226
645;15228
645;15230
644;15232
645;15234
650;15236
645;15238
645;15240
644;15242
644;15244
645;15246
644;15248
644;15250
645;15252
645;15254
645;15256
645;15258
645;15260
644;15262
644;15264
644;15266
645;15268
645;15270
644;15272
644;15275
645;15277
644;15279
644;15281
647;15283
645;15285
645;15287
644;15289
643;15291
644;15293
644;15295
645;15297
645;15299
645;15301
645;15303
645;15305
645;15307
645;15309
644;15311
644;15313
645;15315
645;15318
645;15320
644;15322
644;15324
644;15326
644;15328
645;15330
645;15332
645;15334
644;15336
643;15338
645;15340
644;15342
644;15344
645;15346
645;15348
644;15350
644;15352
644;15354
644;15356
644;15358
644;15360
645;15362
645;15364
645;15366
644;15368
644;15370
644;15372
644;15374
644;15376
645;15378
645;15380
645;15382
644;15384
644;15386
644;15388
644;15390
646;15392
645;15394
645;15396
645;15398
644;15400
645;15403
644;15405
644;15407
645;15409
645;15411
645;15413
644;15415
644;15417
644;15419
644;15421
644;15423
645;15425
645;15427
645;15429
643;15431
644;15433
645;15435
645;15437
645;15439
645;15441
645;15443
644;15446
644;15448
644;15450
644;15452
644;15454
645;15456
645;15458
644;15460
644;15462
645;15464
644;15466
645;15468
644;15470
645;15472
645;15474
644;15476
644;15478
645;15480
644;15482
645;15484
645;15486
645;15488
645;15490
645;15492
644;15494
645;15496
644;15498
644;15500
646;15502
645;15504
645;15506
644;15508
644;15510
644;15512
644;15514
644;15516
645;15518
645;15520
645;15522
644;15524
645;15526
645;15528
644;15531
644;15533
645;15535
645;15537
645;15539
644;15541
644;15543
644;15545
645;15547
645;15549
645;15551
645;15553
644;15555
644;15557
644;15559
644;15561
644;15563
645;15565
645;15567
641;15569
644;15571
644;15574
644;15576
644;15578
643;15580
645;15582
645;15584
644;15586
645;15588
645;15590
644;15592
644;15594
645;15596
645;15598
645;15600
645;15602
644;15604
644;15606
644;15608
644;15610
645;15612
645;15614
645;15616
644;15618
644;15620
644;15622
644;15624
644;15626
645;15628
645;15630
645;15632
644;15634
645;15636
645;15638
644;15640
644;15642
645;15644
645;15646
645;15648
644;15650
644;15652
645;15654
644;15656
645;15659
645;15661
645;15663
645;15665
645;15667
644;15669
644;15671
645;15673
645;15675
645;15677
640;15679
644;15681
644;15683
644;15685
644;15687
644;15689
645;15691
645;15693
645;15695
644;15697
645;15699
645;15702
644;15704
645;15706
645;15708
645;15710
644;15712
644;15714
644;15716
644;15718
645;15720
645;15722
645;15724
640;15726
644;15728
644;15730
644;15732
643;15734
647;15736
645;15738
645;15740
644;15742
644;15744
644;15746
644;15748
644;15750
644;15752
645;15754
645;15756
645;15758
644;15760
645;15762
644;15764
644;15766
645;15768
645;15770
645;15772
644;15774
644;15776
644;15778
645;15780
644;15782
645;15784
645;15787
639;15789
644;15791
645;15793
645;15795
644;15797
645;15799
645;15801
645;15803
645;15805
644;15807
644;15809
644;15811
645;15813
645;15815
645;15817
645;15819
644;15821
644;15823
644;15825
644;15827
644;15830
645;15832
645;15834
641;15836
644;15838
645;15840
645;15842
644;15844
650;15846
645;15848
645;15850
644;15852
645;15854
645;15856
644;15858
644;15860
645;15862
645;15864
645;15866
645;15868
644;15870
644;15872
644;15874
645;15876
645;15878
645;15880
645;15882
645;15884
644;15886
644;15888
644;15890
644;15892
645;15894
645;15896
639;15898
644;15900
644;15902
645;15904
644;15906
644;15908
645;15910
645;15912
644;15915
644;15917
644;15919
644;15921
645;15923
645;15925
645;15927
645;15929
644;15931
644;15933
644;15935
644;15937
643;15939
645;15941
645;15943
642;15945
644;15947
644;15949
643;15951
644;15953
651;15955
645;15958
645;15960
644;15962
645;15964
644;15966
644;15968
644;15970
645;15972
645;15974
645;15976
644;15978
644;15980
645;15982
644;15984
644;15986
645;15988
645;15990
644;15992
644;15994
644;15996
644;15998
645;16000
644;16002
645;16004
645;16006
639;16008
644;16010
644;16012
644;16014
644;16016
645;16018
645;16020
645;16022
645;16024
644;16026
644;16028
645;16030
644;16032
645;16034
645;16036
645;16038
645;16040
645;16043
645;16045
644;16047
645;16049
645;16051
645;16053
642;16055
644;16057
644;16059
644;16061
644;16063
650;16065
645;16067
645;16069
644;16071
644;16073
644;16075
644;16077
645;16079
645;16081
645;16083
645;16086
644;16088
644;16090
644;16092
645;16094
643;16096
645;16098
645;16100
645;16102
644;16104
645;16106
644;16108
644;16110
646;16112
645;16114
645;16116
644;16118
644;16120
644;16122
644;16124
644;16126
645;16128
645;16130
645;16132
644;16134
644;16136
644;16138
644;16140
644;16142
645;16144
645;16146
645;16148
644;16150
644;16152
644;16154
644;16156
644;16158
645;16160
645;16162
644;16164
644;16166
644;16168
644;16171
643;16173
650;16175
645;16177
645;16179
644;16181
644;16183
644;16185
645;16187
643;16189
645;16191
645;16193
645;16195
645;16197
644;16199
645;16201
644;16203
644;16205
645;16207
645;16209
645;16211
645;16214
644;16216
644;16218
644;16220
645;16222
645;16224
645;16226
644;16228
644;16230
645;16232
644;16234
645;16236
645;16238
645;16240
645;16242
644;16244
644;16246
644;16248
645;16250
645;16252
645;16254
645;16256
645;16258
644;16260
644;16262
644;16264
644;16266
644;16268
645;16270
645;16272
643;16274
644;16276
645;16278
644;16280
644;16282
649;16284
645;16286
645;16288
645;16290
644;16292
644;16294
644;16296
644;16299
645;16301
645;16303
645;16305
644;16307
644;16309
644;16311
644;16313
644;16315
645;16317
645;16319
645;16321
644;16323
644;16325
645;16327
644;16329
645;16331
645;16333
645;16335
644;16337
644;16339
645;16342
645;16344
644;16346
645;16348
645;16350
644;16352
645;16354
644;16356
644;16358
645;16360
644;16362
645;16364
645;16366
644;16368
644;16370
644;16372
644;16374
644;16376
645;16378
645;16380
645;16382
643;16384
644;16386
644;16388
644;16390
644;16392
648;16394
645;16396
645;16398
644;16400
644;16402
644;16404
645;16406
645;16408
645;16410
645;16412
645;16414
644;16416
644;16418
644;16420
645;16422
644;16424
645;16427
645;16429
645;16431
644;16433
644;16435
645;16437
644;16439
645;16441
645;16443
645;16445
644;16447
644;16449
644;16451
644;16453
644;16455
645;16457
645;16459
644;16461
644;16463
644;16465
644;16467
644;16470
645;16472
645;16474
645;16476
644;16478
644;16480
645;16482
644;16484
645;16486
645;16488
645;16490
645;16492
644;16494
645;16496
644;16498
645;16500
644;16502
645;16504
645;16506
639;16508
644;16510
644;16512
644;16514
645;16516
645;16518
645;16520
645;16522
645;16524
644;16526
644;16528
644;16530
645;16532
644;16534
645;16536
645;16538
644;16540
645;16542
644;16544
644;16546
644;16548
645;16550
645;16552
645;16555
644;16557
644;16559
645;16561
645;16563
644;16565
645;16567
645;16569
644;16571
644;16573
644;16575
644;16577
644;16579
644;16581
645;16583
645;16585
645;16587
643;16589
644;16591
644;16593
645;16595
645;16598
645;16600
645;16602
644;16604
644;16606
644;16608
644;16610
644;16612
645;16614
645;16616
639;16618
644;16620
644;16622
644;16624
643;16626
644;16628
645;16630
645;16632
645;16634
644;16636
644;16638
644;16640
644;16642
644;16644
645;16646
645;16648
645;16650
644;16652
644;16654
644;16656
645;16658
645;16660
645;16662
645;16664
644;16666
644;16668
644;16670
644;16672
644;16674
645;16676
645;16678
644;16680
644;16683
644;16685
644;16687
644;16689
644;16691
645;16693
645;16695
644;16697
644;16699
644;16701
644;16703
644;16705
645;16707
645;16709
645;16711
644;16713
645;16715
645;16717
644;16719
644;16721
645;16723
645;16726
640;16728
644;16730
644;16732
644;16734
644;16736
645;16738
645;16740
645;16742
644;16744
645;16746
643;16748
645;16750
644;16752
645;16754
645;16756
645;16758
643;16760
645;16762
644;16764
645;16766
644;16768
645;16770
644;16772
645;16774
644;16776
645;16778
644;16780
644;16782
645;16784
645;16786
645;16788
642;16790
644;16792
644;16794
644;16796
644;16798
644;16800
645;16802
645;16804
644;16806
644;16808
644;16811
643;16813
645;16815
645;16817
645;16819
645;16821
645;16823
645;16825
644;16827
644;16829
645;16831
645;16833
645;16835
639;16837
645;16839
644;16841
644;16843
645;16845
645;16847
645;16849
645;16851
644;16854
644;16856
644;16858
644;16860
644;16862
645;16864
645;16866
645;16868
644;16870
644;16872
644;16874
644;16876
644;16878
645;16880
645;16882
643;16884
644;16886
644;16888
644;16890
644;16892
650;16894
645;16896
645;16898
641;16900
643;16902
645;16904
645;16906
644;16908
643;16910
645;16912
645;16914
645;16916
644;16918
644;16920
644;16922
644;16924
645;16926
645;16928
645;16930
644;16932
643;16934
644;16936
645;16939
644;16941
645;16943
645;16945
640;16947
645;16949
644;16951
644;16953
645;16955
646;16957
645;16959
645;16961
644;16963
644;16965
644;16967
645;16969
644;16971
645;16973
645;16975
645;16977
643;16979
644;16982
644;16984
644;16986
644;16988
645;16990
645;16992
643;16994
644;16996
644;16998
644;17000
645;17002
648;17004
645;17006
645;17008
644;17010
644;17012
644;17014
644;17016
644;17018
645;17020
645;17022
645;17024
644;17026
644;17028
644;17030
643;17032
645;17034
645;17036
645;17038
645;17040
645;17042
645;17044
644;17046
645;17048
644;17050
645;17052
645;17054
641;17056
644;17058
645;17060
645;17062
644;17064
648;17067
645;17069
645;17071
644;17073
644;17075
644;17077
644;17079
644;17081
645;17083
645;17085
645;17087
644;17089
644;17091
644;17093
644;17095
645;17097
645;17099
645;17101
644;17103
644;17105
644;17107
644;17110
644;17112
648;17114
645;17116
645;17118
645;17120
645;17122
644;17124
644;17126
644;17128
645;17130
645;17132
645;17134
644;17136
644;17138
644;17140
645;17142
644;17144
645;17146
645;17148
644;17150
644;17152
645;17154
644;17156
644;17158
644;17160
645;17162
645;17164
642;17166
644;17168
645;17170
644;17172
645;17174
650;17176
645;17178
645;17180
644;17182
644;17184
645;17186
644;17188
644;17190
645;17192
645;17195
645;17197
644;17199
644;17201
644;17203
644;17205
644;17207
645;17209
645;17211
644;17213
644;17215
645;17217
644;17219
644;17221
647;17223
645;17225
645;17227
644;17229
644;17231
645;17233
644;17235
644;17238
645;17240
645;17242
645;17244
644;17246
644;17248
645;17250
644;17252
645;17254
645;17256
645;17258
645;17260
645;17262
644;17264
644;17266
644;17268
645;17270
645;17272
645;17274
644;17276
644;17278
644;17280
645;17282
644;17284
651;17286
645;17288
645;17290
645;17292
644;17294
645;17296
644;17298
644;17300
645;17302
645;17304
645;17306
644;17308
645;17310
643;17312
643;17314
644;17316
645;17318
645;17320
645;17323
644;17325
645;17327
645;17329
644;17331
646;17333
645;17335
645;17337
643;17339
645;17341
644;17343
644;17345
645;17347
645;17349
645;17351
645;17353
644;17355
644;17357
644;17359
643;17361
645;17363
645;17366
645;17368
645;17370
644;17372
644;17374
644;17376
644;17378
645;17380
645;17382
645;17384
644;17386
644;17388
645;17390
644;17392
644;17394
645;17396
645;17398
642;17400
644;17402
644;17404
644;17406
645;17408
644;17410
645;17412
645;17414
645;17416
644;17418
644;17420
643;17422
644;17424
645;17426
645;17428
645;17430
645;17432
644;17434
644;17436
643;17438
644;17440
646;17442
645;17444
645;17446
644;17448
644;17451
644;17453
644;17455
644;17457
645;17459
645;17461
645;17463
644;17465
644;17467
644;17469
645;17471
644;17473
645;17475
645;17477
645;17479
645;17481
645;17483
644;17485
644;17487
645;17489
645;17491
645;17494
644;17496
645;17498
644;17500
644;17502
644;17504
645;17506
645;17508
640;17510
644;17512
644;17514
644;17516
645;17518
644;17520
645;17522
645;17524
645;17526
645;17528
645;17530
645;17532
644;17534
644;17536
645;17538
645;17540
645;17542
644;17544
644;17546
644;17548
644;17550
645;17552
645;17554
645;17556
644;17558
644;17560
644;17562
644;17564
644;17566
645;17568
645;17570
645;17572
644;17574
645;17576
644;17579
645;17581
644;17583
645;17585
645;17587
645;17589
644;17591
644;17593
644;17595
644;17597
645;17599
645;17601
645;17603
644;17605
644;17607
644;17609
644;17611
644;17613
645;17615
645;17617
639;17619
644;17622
644;17624
644;17626
645;17628
644;17630
645;17632
645;17634
644;17636
644;17638
645;17640
644;17642
644;17644
645;17646
645;17648
645;17650
643;17652
644;17654
645;17656
644;17658
644;17660
645;17662
645;17664
645;17666
645;17668
645;17670
644;17672
644;17674
645;17676
645;17678
645;17680
644;17682
644;17684
644;17686
644;17688
644;17690
644;17692
645;17694
645;17696
644;17698
644;17700
644;17702
644;17704
644;17707
645;17709
645;17711
645;17713
644;17715
645;17717
644;17719
644;17721
644;17723
645;17725
645;17727
639;17729
644;17731
644;17733
644;17735
644;17737
644;17739
645;17741
645;17743
644;17745
645;17747
645;17750
644;17752
644;17754
645;17756
645;17758
645;17760
644;17762
644;17764
644;17766
644;17768
644;17770
645;17772
645;17774
641;17776
644;17778
644;17780
644;17782
645;17784
651;17786
645;17788
645;17790
644;17792
644;17794
644;17796
644;17798
644;17800
644;17802
645;17804
645;17806
644;17808
643;17810
644;17812
643;17814
644;17816
645;17818
645;17820
645;17822
644;17824
644;17826
644;17828
644;17830
644;17832
645;17835
645;17837
639;17839
645;17841
645;17843
644;17845
644;17847
644;17849
645;17851
645;17853
644;17855
645;17857
643;17859
645;17861
643;17863
645;17865
645;17867
645;17869
644;17871
645;17873
645;17875
644;17878
644;17880
645;17882
645;17884
642;17886
644;17888
643;17890
645;17892
644;17894
651;17896
645;17898
645;17900
644;17902
644;17904
644;17906
644;17908
644;17910
645;17912
645;17914
645;17916
644;17918
644;17920
644;17922
644;17924
644;17926
645;17928
645;17930
645;17932
644;17934
644;17936
645;17938
644;17940
644;17942
645;17944
645;17946
640;17948
645;17950
644;17952
644;17954
644;17956
645;17958
645;17960
645;17963
644;17965
644;17967
644;17969
643;17971
644;17973
645;17975
645;17977
645;17979
645;17981
644;17983
644;17985
644;17987
644;17989
645;17991
645;17993
643;17995
645;17997
645;17999
644;18001
644;18003
650;18006
645;18008
645;18010
644;18012
644;18014
644;18016
644;18018
644;18020
645;18022
645;18024
645;18026
645;18028
645;18030
644;18032
645;18034
644;18036
645;18038
645;18040
644;18042
644;18044
644;18046
644;18048
644;18050
644;18052
645;18054
645;18056
640;18058
645;18060
644;18062
645;18064
644;18066
645;18068
645;18070
645;18072
644;18074
644;18076
644;18078
644;18080
644;18082
645;18084
645;18086
645;18088
643;18091
644;18093
644;18095
644;18097
644;18099
645;18101
645;18103
643;18105
644;18107
643;18109
644;18111
645;18113
649;18115
645;18117
645;18119
644;18121
644;18123
644;18125
644;18127
644;18129
645;18131
645;18134
645;18136
645;18138
644;18140
644;18142
645;18144
645;18146
645;18148
645;18150
645;18152
644;18154
644;18156
644;18158
644;18160
645;18162
645;18164
645;18166
644;18168
644;18170
644;18172
644;18174
644;18176
647;18178
645;18180
645;18182
644;18184
644;18186
645;18188
645;18190
644;18192
645;18194
645;18196
645;18198
644;18200
644;18202
644;18204
645;18206
645;18208
645;18210
645;18212
644;18214
643;18216
643;18219
644;18221
645;18223
648;18225
645;18227
645;18229
644;18231
645;18233
645;18235
644;18237
644;18239
645;18241
645;18243
645;18245
644;18247
645;18249
644;18251
645;18253
644;18255
645;18257
645;18259
645;18262
645;18264
645;18266
644;18268
644;18270
645;18272
645;18274
645;18276
645;18278
644;18280
644;18282
644;18284
644;18286
645;18288
645;18290
644;18292
644;18294
644;18296
645;18298
644;18300
645;18302
645;18304
645;18306
645;18308
644;18310
645;18312
644;18314
645;18316
645;18318
645;18320
645;18322
644;18324
644;18326
643;18328
643;18330
644;18332
647;18334
645;18336
645;18338
645;18340
644;18342
644;18344
644;18347
644;18349
645;18351
645;18353
645;18355
644;18357
644;18359
644;18361
644;18363
644;18365
645;18367
645;18369
645;18371
645;18373
644;18375
645;18377
644;18379
645;18381
645;18383
645;18385
645;18387
644;18390
645;18392
645;18394
644;18396
645;18398
645;18400
644;18402
645;18404
644;18406
644;18408
644;18410
644;18412
645;18414
645;18416
645;18418
644;18420
644;18422
644;18424
644;18426
645;18428
645;18430
645;18432
645;18434
643;18436
643;18438
644;18440
645;18442
646;18444
645;18446
645;18448
645;18450
644;18452
644;18454
645;18456
645;18458
645;18460
645;18462
645;18464
645;18466
644;18468
645;18470
644;18472
644;18475
645;18477
645;18479
645;18481
644;18483
644;18485
643;18487
643;18489
645;18491
645;18493
645;18495
643;18497
645;18499
644;18501
645;18503
644;18505
645;18507
645;18509
643;18511
644;18513
644;18515
643;18518
644;18520
643;18522
645;18524
645;18526
645;18528
644;18530
644;18532
645;18534
645;18536
645;18538
645;18540
645;18542
644;18544
644;18546
644;18548
644;18550
644;18552
645;18554
645;18556
640;18558
644;18560
644;18562
645;18564
644;18566
643;18568
645;18570
645;18572
645;18574
644;18576
644;18578
644;18580
644;18582
645;18584
645;18586
645;18588
644;18590
644;18592
644;18594
644;18596
644;18598
645;18600
645;18603
645;18605
644;18607
644;18609
645;18611
644;18613
645;18615
645;18617
645;18619
641;18621
644;18623
644;18625
644;18627
645;18629
644;18631
645;18633
645;18635
644;18637
644;18639
644;18641
644;18643
644;18646
645;18648
645;18650
645;18652
645;18654
644;18656
645;18658
645;18660
645;18662
645;18664
645;18666
641;18668
644;18670
644;18672
644;18674
645;18676
645;18678
645;18680
645;18682
645;18684
645;18686
643;18688
644;18690
643;18692
645;18694
645;18696
645;18698
645;18700
645;18702
644;18704
645;18706
644;18708
645;18710
645;18712
645;18714
644;18716
644;18718
644;18720
645;18722
645;18724
645;18726
645;18728
640;18731
645;18733
644;18735
644;18737
644;18739
644;18741
645;18743
645;18745
645;18747
644;18749
645;18751
644;18753
645;18755
645;18757
645;18759
645;18761
644;18763
643;18765
644;18767
644;18769
644;18771
645;18774
645;18776
641;18778
645;18780
644;18782
644;18784
644;18786
646;18788
645;18790
645;18792
644;18794
643;18796
644;18798
645;18800
645;18802
645;18804
645;18806
645;18808
645;18810
644;18812
645;18814
644;18816
644;18818
645;18820
645;18822
645;18824
644;18826
643;18828
644;18830
644;18832
644;18834
645;18836
645;18838
639;18840
644;18842
644;18844
644;18846
644;18848
644;18850
645;18852
645;18854
645;18856
644;18859
643;18861
644;18863
644;18865
645;18867
645;18869
645;18871
644;18873
644;18875
644;18877
645;18879
643;18881
645;18883
645;18885
641;18887
644;18889
645;18891
644;18893
644;18895
650;18897
645;18899
645;18902
644;18904
644;18906
644;18908
644;18910
644;18912
645;18914
645;18916
645;18918
645;18920
644;18922
644;18924
644;18926
644;18928
645;18930
645;18932
644;18934
644;18936
644;18938
643;18940
645;18942
645;18944
645;18946
645;18948
639;18950
643;18952
644;18954
643;18956
643;18958
644;18960
645;18962
645;18964
644;18966
644;18968
644;18970
645;18972
644;18974
645;18976
645;18978
645;18980
644;18982
644;18984
644;18987
643;18989
644;18991
645;18993
645;18995
642;18997
644;18999
645;19001
645;19003
644;19005
650;19007
645;19009
645;19011
644;19013
644;19015
644;19017
644;19019
644;19021
645;19023
645;19025
645;19027
644;19030
644;19032
644;19034
643;19036
644;19038
645;19040
645;19042
644;19044
644;19046
645;19048
644;19050
644;19052
647;19054
645;19056
645;19058
644;19060
644;19062
644;19064
644;19066
644;19068
645;19070
645;19072
645;19074
644;19076
644;19078
644;19080
644;19082
644;19084
645;19086
645;19088
645;19090
644;19092
644;19094
644;19096
644;19098
645;19100
645;19102
645;19104
642;19106
644;19108
645;19110
645;19112
644;19115
651;19117
645;19119
645;19121
644;19123
645;19125
645;19127
645;19129
645;19131
645;19133
645;19135
645;19137
644;19139
644;19141
644;19143
644;19145
645;19147
645;19149
645;19151
645;19153
644;19155
644;19158
644;19160
644;19162
646;19164
645;19166
645;19168
644;19170
644;19172
645;19174
645;19176
644;19178
645;19180
645;19182
645;19184
645;19186
645;19188
644;19190
645;19192
644;19194
645;19196
645;19198
645;19200
644;19202
644;19204
645;19206
644;19208
645;19210
645;19212
645;19214
643;19216
644;19218
644;19220
644;19222
644;19224
650;19226
645;19228
645;19230
645;19232
644;19234
644;19236
644;19238
644;19240
645;19243
645;19245
645;19247
645;19249
644;19251
645;19253
645;19255
644;19257
645;19259
645;19261
644;19263
643;19265
644;19267
645;19269
644;19271
645;19273
645;19275
645;19277
644;19279
645;19281
645;19283
644;19286
644;19288
645;19290
645;19292
645;19294
643;19296
644;19298
644;19300
644;19302
644;19304
645;19306
645;19308
645;19310
644;19312
644;19314
644;19316
644;19318
645;19320
645;19322
645;19324
644;19326
644;19328
644;19330
644;19332
645;19334
649;19336
645;19338
645;19340
645;19342
644;19344
645;19346
644;19348
644;19350
645;19352
645;19354
645;19356
644;19358
644;19360
644;19362
644;19364
645;19366
645;19368
645;19371
645;19373
644;19375
644;19377
644;19379
645;19381
645;19383
645;19385
645;19387
644;19389
644;19391
643;19393
644;19395
644;19397
645;19399
645;19401
645;19403
644;19405
644;19407
644;19409
643;19411
644;19414
645;19416
645;19418
644;19420
644;19422
645;19424
644;19426
644;19428
645;19430
645;19432
645;19434
644;19436
644;19438
644;19440
644;19442
644;19444
645;19446
645;19448
640;19450
644;19452
644;19454
644;19456
645;19458
645;19460
645;19462
645;19464
645;19466
644;19468
644;19470
644;19472
644;19474
644;19476
645;19478
645;19480
645;19482
644;19484
645;19486
644;19488
644;19490
645;19492
645;19494
645;19496
644;19499
644;19501
644;19503
644;19505
644;19507
645;19509
645;19511
644;19513
644;19515
644;19517
644;19519
644;19521
643;19523
645;19525
645;19527
645;19529
644;19531
644;19533
644;19535
644;19537
645;19539
645;19542
645;19544
644;19546
644;19548
644;19550
644;19552
644;19554
645;19556
645;19558
639;19560
644;19562
644;19564
644;19566
643;19568
644;19570
645;19572
645;19574
644;19576
645;19578
644;19580
644;19582
645;19584
644;19586
645;19588
645;19590
644;19592
644;19594
644;19596
644;19598
644;19600
645;19602
645;19604
645;19606
644;19608
644;19610
644;19612
644;19614
643;19616
645;19618
645;19620
644;19622
645;19624
645;19627
644;19629
644;19631
644;19633
645;19635
645;19637
645;19639
644;19641
644;19643
645;19645
643;19647
645;19649
645;19651
645;19653
644;19655
644;19657
644;19659
644;19661
644;19663
645;19665
645;19667
639;19670
644;19672
644;19674
644;19676
645;19678
645;19680
645;19682
645;19684
644;19686
643;19688
644;19690
644;19692
644;19694
645;19696
645;19698
645;19700
644;19702
644;19704
644;19706
644;19708
643;19710
645;19712
645;19714
645;19716
643;19718
644;19720
644;19722
645;19724
644;19726
645;19728
645;19730
643;19732
644;19734
644;19736
645;19738
644;19740
644;19742
645;19744
645;19746
644;19748
644;19750
644;19752
645;19755
644;19757
645;19759
645;19761
645;19763
644;19765
645;19767
644;19769
644;19771
644;19773
645;19775
645;19777
641;19779
645;19781
644;19783
644;19785
644;19787
645;19789
645;19791
645;19793
643;19795
644;19798
644;19800
645;19802
644;19804
645;19806
645;19808
645;19810
644;19812
645;19814
644;19816
644;19818
643;19820
645;19822
645;19824
642;19826
645;19828
644;19830
644;19832
645;19834
650;19836
645;19838
645;19840
642;19842
644;19844
644;19846
644;19848
644;19850
644;19852
645;19854
645;19856
645;19858
644;19860
644;19862
645;19864
645;19866
645;19868
645;19870
645;19872
644;19874
645;19876
645;19878
645;19880
644;19883
645;19885
645;19887
640;19889
644;19891
644;19893
644;19895
644;19897
645;19899
645;19901
645;19903
644;19905
644;19907
644;19909
644;19911
644;19913
645;19915
645;19917
645;19919
644;19921
644;19923
644;19926
645;19928
644;19930
645;19932
645;19934
643;19936
644;19938
644;19940
644;19942
644;19944
649;19946
645;19948
645;19950
644;19952
644;19954
644;19956
645;19958
644;19960
645;19962
645;19964
645;19966
645;19968
645;19970
644;19972
644;19974
644;19976
645;19978
645;19980
645;19982
644;19984
644;19986
644;19988
644;19990
643;19992
645;19994
645;19996
641;19998
644;20000
644;20002
644;20004
644;20006
646;20008
645;20011
645;20013
644;20015
645;20017
644;20019
643;20021
644;20023
645;20025
645;20027
645;20029
644;20031
644;20033
643;20035
644;20037
644;20039
645;20041
645;20043
644;20045
645;20047
644;20049
644;20051
644;20054
649;20056
645;20058
645;20060
644;20062
644;20064
643;20066
644;20068
644;20070
645;20072
645;20074
645;20076
645;20078
644;20080
645;20082
645;20084
644;20086
645;20088
645;20090
645;20092
644;20094
644;20096
644;20098
643;20100
645;20102
645;20104
645;20106
641;20108
644;20110
644;20112
645;20114
644;20116
646;20118
645;20120
645;20122
645;20124
645;20126
644;20128
644;20130
644;20132
645;20134
645;20136
645;20139
644;20141
644;20143
643;20145
644;20147
645;20149
645;20151
645;20153
643;20155
645;20157
645;20159
645;20161
644;20163
648;20165
645;20167
645;20169
644;20171
644;20173
644;20175
644;20177
644;20179
645;20182
645;20184
645;20186
644;20188
644;20190
644;20192
644;20194
644;20196
645;20198
645;20200
645;20202
644;20204
644;20206
644;20208
644;20210
645;20212
645;20214
645;20216
644;20218
644;20220
644;20222
644;20224
644;20226
649;20228
645;20230
645;20232
645;20234
644;20236
645;20238
643;20240
644;20242
645;20244
645;20246
645;20248
643;20250
645;20252
644;20254
645;20256
645;20258
645;20260
645;20262
644;20264
644;20267
644;20269
644;20271
644;20273
647;20275
645;20277
645;20279
644;20281
645;20283
644;20285
644;20287
645;20289
645;20291
645;20293
645;20295
644;20297
644;20299
644;20301
643;20303
644;20305
645;20307
645;20310
644;20312
644;20314
644;20316
644;20318
644;20320
645;20322
645;20324
645;20326
645;20328
644;20330
644;20332
644;20334
644;20336
645;20338
645;20340
644;20342
644;20344
644;20346
644;20348
645;20350
645;20352
645;20354
645;20356
645;20358
644;20360
644;20362
644;20364
644;20366
644;20368
645;20370
645;20372
644;20374
643;20376
645;20378
644;20380
644;20382
646;20384
645;20386
645;20388
644;20390
644;20392
643;20395
645;20397
644;20399
645;20401
645;20403
645;20405
645;20407
644;20409
644;20411
644;20413
644;20415
645;20417
645;20419
644;20421
644;20423
644;20425
644;20427
644;20429
645;20431
645;20433
645;20435
644;20438
645;20440
644;20442
645;20444
644;20446
645;20448
645;20450
644;20452
644;20454
644;20456
644;20458
644;20460
644;20462
645;20464
645;20466
644;20468
644;20470
644;20472
644;20474
644;20476
645;20478
645;20480
645;20482
645;20484
644;20486
644;20488
644;20490
644;20492
646;20494
645;20496
645;20498
644;20500
645;20502
644;20504
644;20506
645;20508
645;20510
645;20512
645;20514
644;20516
644;20518
644;20520
644;20523
644;20525
645;20527
645;20529
644;20531
645;20533
644;20535
644;20537
644;20539
645;20541
645;20543
645;20545
643;20547
644;20549
644;20551
644;20553
645;20555
645;20557
645;20559
642;20561
645;20563
644;20566
644;20568
644;20570
644;20572
645;20574
645;20576
645;20578
644;20580
645;20582
645;20584
644;20586
645;20588
645;20590
645;20592
644;20594
644;20596
644;20598
644;20600
645;20602
645;20604
645;20606
645;20608
644;20610
644;20612
644;20614
644;20616
644;20618
645;20620
645;20622
645;20624
644;20626
644;20628
644;20630
644;20632
644;20634
645;20636
645;20638
645;20640
645;20642
644;20644
644;20646
644;20648
645;20651
645;20653
645;20655
645;20657
644;20659
645;20661
644;20663
644;20665
645;20667
645;20669
640;20671
643;20673
645;20675
644;20677
645;20679
645;20681
645;20683
645;20685
644;20687
644;20689
644;20691
644;20694
644;20696
645;20698
645;20700
645;20702
644;20704
644;20706
643;20708
643;20710
644;20712
645;20714
645;20716
641;20718
643;20720
644;20722
644;20724
644;20726
646;20728
645;20730
645;20732
644;20734
644;20736
644;20738
644;20740
644;20742
644;20744
645;20746
645;20748
645;20750
644;20752
644;20754
644;20756
644;20758
645;20760
645;20762
645;20764
644;20766
643;20768
643;20770
644;20772
644;20774
645;20776
645;20779
639;20781
644;20783
644;20785
643;20787
644;20789
644;20791
645;20793
645;20795
644;20797
644;20799
645;20801
644;20803
644;20805
645;20807
645;20809
645;20811
643;20813
643;20815
644;20817
644;20819
644;20822
645;20824
645;20826
641;20828
643;20830
644;20832
644;20834
644;20836
649;20838
645;20840
645;20842
644;20844
644;20846
644;20848
644;20850
644;20852
645;20854
645;20856
645;20858
644;20860
644;20862
645;20864
644;20866
645;20868
645;20870
645;20872
645;20874
644;20876
644;20878
644;20880
644;20882
644;20884
645;20886
645;20888
639;20890
645;20892
644;20894
645;20896
644;20898
644;20900
645;20902
645;20904
645;20907
644;20909
643;20911
643;20913
644;20915
645;20917
645;20919
645;20921
645;20923
645;20925
644;20927
644;20929
643;20931
645;20933
645;20935
642;20937
645;20939
644;20941
645;20943
645;20945
651;20947
645;20950
645;20952
643;20954
643;20956
645;20958
644;20960
644;20962
645;20964
645;20966
645;20968
645;20970
644;20972
644;20974
645;20976
645;20978
645;20980
645;20982
644;20984
644;20986
644;20988
644;20990
644;20992
644;20994
645;20996
645;20998
640;21000
644;21002
644;21004
644;21006
644;21008
644;21010
645;21012
645;21014
644;21016
644;21018
644;21020
644;21022
644;21024
645;21026
645;21028
645;21030
643;21032
643;21035
644;21037
644;21039
644;21041
645;21043
645;21045
642;21047
644;21049
644;21051
643;21053
644;21055
651;21057
645;21059
645;21061
645;21063
644;21065
644;21067
644;21069
644;21071
645;21073
645;21075
645;21078
643;21080
643;21082
645;21084
645;21086
643;21088
645;21090
645;21092
644;21094
644;21096
644;21098
644;21100
644;21102
645;21104
645;21106
645;21108
644;21110
643;21112
645;21114
644;21116
644;21118
645;21120
645;21122
645;21124
644;21126
644;21128
644;21130
644;21132
643;21134
645;21136
645;21138
645;21140
645;21142
644;21144
644;21146
643;21148
645;21150
645;21152
645;21154
643;21156
644;21158
644;21160
644;21163
644;21165
649;21167
645;21169
645;21171
644;21173
644;21175
644;21177
645;21179
644;21181
645;21183
645;21185
645;21187
645;21189
644;21191
644;21193
644;21195
644;21197
645;21199
645;21201
645;21203
644;21206
644;21208
644;21210
644;21212
645;21214
645;21216
645;21218
645;21220
644;21222
645;21224
644;21226
644;21228
645;21230
645;21232
645;21234
643;21236
643;21238
644;21240
644;21242
644;21244
645;21246
645;21248
645;21250
644;21252
644;21254
644;21256
644;21258
644;21260
645;21262
645;21264
644;21266
644;21268
644;21270
644;21272
644;21274
649;21276
645;21278
645;21280
645;21282
644;21284
644;21286
644;21288
645;21291
645;21293
645;21295
645;21297
644;21299
644;21301
644;21303
644;21305
644;21307
645;21309
645;21311
644;21313
643;21315
644;21317
645;21319
645;21321
645;21323
645;21325
645;21327
644;21329
644;21331
644;21334
644;21336
643;21338
645;21340
645;21342
644;21344
644;21346
645;21348
644;21350
644;21352
644;21354
645;21356
645;21358
645;21360
644;21362
644;21364
644;21366
644;21368
645;21370
645;21372
645;21374
643;21376
644;21378
645;21380
644;21382
644;21384
647;21386
645;21388
645;21390
644;21392
643;21394
644;21396
644;21398
645;21400
645;21402
645;21404
645;21406
644;21408
645;21410
644;21412
644;21414
645;21416
645;21419
645;21421
645;21423
644;21425
644;21427
644;21429
644;21431
645;21433
645;21435
645;21437
645;21439
644;21441
644;21443
644;21445
645;21447
645;21449
645;21451
644;21453
644;21455
644;21457
644;21459
644;21462
644;21464
645;21466
645;21468
645;21470
645;21472
644;21474
645;21476
644;21478
645;21480
645;21482
645;21484
644;21486
644;21488
644;21490
644;21492
644;21494
645;21496
645;21498
640;21500
645;21502
643;21504
644;21506
644;21508
644;21510
645;21512
645;21514
645;21516
644;21518
644;21520
644;21522
644;21524
644;21526
645;21528
645;21530
644;21532
645;21534
644;21536
644;21538
644;21540
645;21542
645;21544
645;21547
644;21549
644;21551
644;21553
644;21555
644;21557
645;21559
645;21561
644;21563
644;21565
644;21567
644;21569
644;21571
644;21573
645;21575
645;21577
645;21579
644;21581
644;21583
644;21585
644;21587
645;21590
645;21592
645;21594
644;21596
644;21598
643;21600
644;21602
644;21604
645;21606
645;21608
640;21610
644;21612
644;21614
644;21616
644;21618
645;21620
645;21622
645;21624
644;21626
644;21628
644;21630
645;21632
644;21634
644;21636
645;21638
645;21640
645;21642
644;21644
644;21646
645;21648
644;21650
645;21652
645;21654
645;21656
644;21658
644;21660
644;21662
644;21664
643;21666
645;21668
645;21670
643;21672
645;21675
644;21677
644;21679
644;21681
644;21683
645;21685
645;21687
645;21689
645;21691
645;21693
644;21695
644;21697
645;21699
645;21701
645;21703
644;21705
644;21707
645;21709
644;21711
644;21713
645;21715
645;21718
641;21720
644;21722
644;21724
644;21726
644;21728
645;21730
645;21732
645;21734
644;21736
644;21738
644;21740
644;21742
645;21744
645;21746
645;21748
645;21750
645;21752
645;21754
644;21756
644;21758
644;21760
645;21762
645;21764
645;21766
644;21768
644;21770
645;21772
644;21774
644;21776
645;21778
645;21780
641;21782
644;21784
644;21786
644;21788
644;21790
644;21792
645;21794
645;21796
644;21798
644;21800
644;21803
645;21805
644;21807
645;21809
645;21811
645;21813
644;21815
644;21817
645;21819
644;21821
644;21823
645;21825
645;21827
641;21829
644;21831
644;21833
644;21835
644;21837
646;21839
645;21841
645;21843
644;21846
645;21848
643;21850
644;21852
644;21854
645;21856
645;21858
645;21860
644;21862
643;21864
644;21866
644;21868
644;21870
645;21872
645;21874
643;21876
644;21878
643;21880
644;21882
644;21884
649;21886
645;21888
645;21890
640;21892
644;21894
644;21896
645;21898
644;21900
644;21902
645;21904
645;21906
644;21908
643;21910
644;21912
644;21914
644;21916
645;21918
645;21920
645;21922
644;21924
644;21926
644;21928
644;21931
643;21933
645;21935
645;21937
642;21939
644;21941
645;21943
645;21945
645;21947
647;21949
645;21951
645;21953
644;21955
644;21957
644;21959
643;21961
644;21963
645;21965
645;21967
645;21969
644;21971
644;21974
644;21976
644;21978
644;21980
645;21982
645;21984
643;21986
644;21988
644;21990
644;21992
644;21994
648;21996
645;21998
645;22000
644;22002
644;22004
644;22006
644;22008
645;22010
645;22012
645;22014
645;22016
645;22018
643;22020
644;22022
644;22024
645;22026
645;22028
645;22030
645;22032
644;22034
644;22036
644;22038
644;22040
644;22042
645;22044
645;22046
641;22048
644;22050
645;22052
644;22054
644;22056
650;22059
645;22061
645;22063
644;22065
644;22067
644;22069
644;22071
643;22073
645;22075
645;22077
645;22079
644;22081
644;22083
644;22085
644;22087
644;22089
645;22091
645;22093
644;22095
644;22097
645;22099
645;22102
645;22104
647;22106
645;22108
645;22110
644;22112
644;22114
643;22116
644;22118
644;22120
645;22122
645;22124
645;22126
644;22128
644;22130
644;22132
644;22134
645;22136
645;22138
645;22140
645;22142
644;22144
644;22146
644;22148
643;22150
644;22152
645;22154
645;22156
642;22158
645;22160
645;22162
645;22164
644;22166
651;22168
645;22170
645;22172
644;22174
644;22176
645;22178
645;22180
644;22182
645;22184
645;22187
645;22189
644;22191
644;22193
645;22195
644;22197
644;22199
645;22201
645;22203
644;22205
644;22207
644;22209
644;22211
644;22213
646;22215
645;22217
645;22219
644;22221
644;22223
644;22225
644;22227
644;22230
645;22232
645;22234
645;22236
644;22238
644;22240
645;22242
645;22244
645;22246
645;22248
645;22250
645;22252
644;22254
644;22256
644;22258
644;22260
645;22262
645;22264
645;22266
644;22268
644;22270
644;22272
644;22274
644;22276
650;22278
645;22280
645;22282
644;22284
645;22286
644;22288
644;22290
644;22292
645;22294
645;22296
645;22298
644;22300
644;22302
644;22304
644;22306
644;22308
645;22310
645;22312
645;22315
644;22317
644;22319
644;22321
644;22323
646;22325
645;22327
645;22329
644;22331
644;22333
644;22335
644;22337
644;22339
645;22341
645;22343
645;22345
644;22347
644;22349
645;22351
644;22353
644;22355
645;22358
645;22360
645;22362
644;22364
644;22366
644;22368
643;22370
645;22372
645;22374
645;22376
644;22378
645;22380
643;22382
644;22384
644;22386
645;22388
645;22390
641;22392
644;22394
644;22396
644;22398
644;22400
644;22402
645;22404
645;22406
645;22408
644;22410
644;22412
644;22414
645;22416
645;22418
645;22420
645;22422
644;22424
644;22426
645;22428
645;22430
644;22432
645;22434
645;22436
645;22438
644;22440
644;22443
644;22445
644;22447
644;22449
645;22451
645;22453
645;22455
644;22457
644;22459
644;22461
644;22463
644;22465
645;22467
645;22469
645;22471
644;22473
644;22475
644;22477
644;22479
645;22481
645;22483
645;22486
644;22488
644;22490
643;22492
644;22494
644;22496
645;22498
645;22500
640;22502
644;22504
644;22506
644;22508
644;22510
644;22512
645;22514
645;22516
645;22518
644;22520
644;22522
644;22524
644;22526
644;22528
645;22530
645;22532
645;22534
644;22536
644;22538
644;22540
645;22542
645;22544
645;22546
645;22548
644;22550
644;22552
643;22554
644;22556
644;22558
645;22560
645;22562
645;22564
644;22566
644;22568
644;22571
644;22573
645;22575
645;22577
645;22579
645;22581
645;22583
644;22585
645;22587
644;22589
645;22591
645;22593
645;22595
644;22597
644;22599
644;22601
644;22603
644;22605
645;22607
645;22609
639;22611
645;22614
644;22616
645;22618
644;22620
644;22622
645;22624
645;22626
644;22628
644;22630
644;22632
644;22634
644;22636
645;22638
645;22640
645;22642
644;22644
645;22646
644;22648
644;22650
644;22652
645;22654
645;22656
645;22658
643;22660
644;22662
644;22664
643;22666
644;22668
645;22670
645;22672
644;22674
644;22676
644;22678
644;22680
644;22682
644;22684
645;22686
645;22688
645;22690
645;22692
644;22694
644;22696
644;22699
645;22701
645;22703
645;22705
644;22707
643;22709
644;22711
643;22713
644;22715
645;22717
645;22719
640;22721
645;22723
644;22725
645;22727
644;22729
644;22731
645;22733
645;22735
644;22737
645;22739
644;22742
645;22744
644;22746
645;22748
645;22750
645;22752
644;22754
644;22756
644;22758
644;22760
644;22762
645;22764
645;22766
641;22768
644;22770
645;22772
645;22774
645;22776
650;22778
645;22780
645;22782
644;22784
643;22786
644;22788
643;22790
645;22792
644;22794
645;22796
645;22798
644;22800
644;22802
644;22804
644;22806
644;22808
645;22810
645;22812
645;22814
644;22816
644;22818
644;22820
645;22822
645;22824
645;22827
645;22829
639;22831
645;22833
645;22835
644;22837
644;22839
644;22841
645;22843
645;22845
645;22847
643;22849
643;22851
643;22853
644;22855
645;22857
645;22859
645;22861
645;22863
644;22865
644;22867
644;22870
643;22872
645;22874
645;22876
642;22878
644;22880
644;22882
644;22884
644;22886
651;22888
645;22890
645;22892
644;22894
643;22896
644;22898
644;22900
645;22902
645;22904
645;22906
645;22908
644;22910
644;22912
644;22914
644;22916
645;22918
645;22920
645;22922
645;22924
643;22926
644;22928
644;22930
644;22932
644;22934
645;22936
645;22938
639;22940
644;22942
644;22944
644;22946
645;22948
645;22950
645;22952
645;22955
645;22957
644;22959
645;22961
644;22963
644;22965
645;22967
645;22969
645;22971
644;22973
643;22975
644;22977
644;22979
644;22981
645;22983
645;22985
643;22987
644;22989
644;22991
644;22993
644;22995
651;22998
645;23000
645;23002
644;23004
644;23006
645;23008
644;23010
644;23012
645;23014
645;23016
645;23018
644;23020
644;23022
644;23024
644;23026
645;23028
645;23030
645;23032
644;23034
644;23036
644;23038
644;23040
644;23042
643;23044
645;23046
645;23048
639;23050
645;23052
643;23054
644;23056
644;23058
645;23060
645;23062
645;23064
644;23066
644;23068
644;23070
644;23072
645;23074
645;23076
645;23078
645;23080
644;23083
645;23085
644;23087
644;23089
644;23091
645;23093
645;23095
642;23097
644;23099
644;23101
644;23103
644;23105
651;23107
645;23109
645;23111
643;23113
644;23115
644;23117
644;23119
644;23121
645;23123
645;23126
645;23128
644;23130
644;23132
644;23134
644;23136
644;23138
645;23140
645;23142
644;23144
644;23146
645;23148
645;23150
644;23152
645;23154
645;23156
645;23158
644;23160
644;23162
644;23164
643;23166
644;23168
646;23170
645;23172
645;23174
644;23176
644;23178
645;23180
644;23182
644;23184
645;23186
645;23188
645;23190
644;23192
644;23194
643;23196
643;23198
644;23200
645;23202
645;23204
643;23206
644;23208
644;23211
645;23213
644;23215
650;23217
645;23219
645;23221
644;23223
644;23225
644;23227
644;23229
645;23231
645;23233
645;23235
645;23237
644;23239
644;23241
644;23243
645;23245
644;23247
645;23249
645;23251
644;23254
644;23256
644;23258
644;23260
644;23262
645;23264
645;23266
645;23268
645;23270
643;23272
645;23274
644;23276
644;23278
645;23280
645;23282
645;23284
645;23286
644;23288
644;23290
645;23292
644;23294
645;23296
645;23298
645;23300
644;23302
644;23304
644;23306
645;23308
645;23310
645;23312
645;23314
644;23316
644;23318
645;23320
644;23322
644;23324
649;23326
645;23328
645;23330
644;23332
644;23334
645;23336
644;23339
645;23341
645;23343
645;23345
645;23347
644;23349
645;23351
644;23353
644;23355
644;23357
645;23359
645;23361
645;23363
644;23365
645;23367
644;23369
644;23371
645;23373
645;23375
645;23377
644;23379
644;23382
644;23384
644;23386
644;23388
645;23390
645;23392
644;23394
644;23396
644;23398
644;23400
644;23402
645;23404
645;23406
645;23408
645;23410
644;23412
644;23414
644;23416
644;23418
645;23420
645;23422
645;23424
644;23426
644;23428
645;23430
644;23432
645;23434
648;23436
645;23438
645;23440
644;23442
644;23444
644;23446
644;23448
644;23450
645;23452
645;23454
645;23456
644;23458
644;23460
645;23462
644;23464
644;23467
645;23469
645;23471
645;23473
644;23475
644;23477
644;23479
645;23481
645;23483
645;23485
645;23487
644;23489
644;23491
645;23493
645;23495
645;23497
645;23499
645;23501
644;23503
644;23505
644;23507
644;23510
644;23512
644;23514
645;23516
645;23518
644;23520
644;23522
644;23524
644;23526
644;23528
645;23530
645;23532
645;23534
645;23536
644;23538
643;23540
644;23542
645;23544
645;23546
645;23548
639;23550
644;23552
644;23554
644;23556
644;23558
644;23560
645;23562
645;23564
645;23566
644;23568
645;23570
644;23572
644;23574
644;23576
645;23578
645;23580
645;23582
644;23584
644;23586
644;23588
644;23590
645;23592
645;23595
645;23597
644;23599
645;23601
644;23603
644;23605
644;23607
645;23609
645;23611
644;23613
644;23615
644;23617
644;23619
643;23621
644;23623
645;23625
645;23627
644;23629
644;23631
645;23633
644;23635
644;23638
645;23640
645;23642
645;23644
644;23646
644;23648
644;23650
644;23652
644;23654
645;23656
645;23658
639;23660
645;23662
645;23664
644;23666
644;23668
644;23670
645;23672
645;23674
645;23676
643;23678
644;23680
644;23682
645;23684
645;23686
645;23688
645;23690
645;23692
645;23694
644;23696
644;23698
644;23700
645;23702
645;23704
645;23706
644;23708
644;23710
645;23712
644;23714
644;23716
645;23718
645;23720
644;23723
645;23725
644;23727
645;23729
643;23731
644;23733
645;23735
645;23737
645;23739
644;23741
645;23743
644;23745
644;23747
645;23749
645;23751
645;23753
644;23755
643;23757
644;23759
645;23761
645;23763
645;23766
645;23768
640;23770
644;23772
644;23774
644;23776
644;23778
645;23780
645;23782
645;23784
644;23786
644;23788
644;23790
645;23792
644;23794
645;23796
645;23798
645;23800
644;23802
645;23804
644;23806
644;23808
644;23810
645;23812
645;23814
645;23816
644;23818
644;23820
644;23822
644;23824
644;23826
645;23828
645;23830
642;23832
644;23834
644;23836
644;23838
643;23840
644;23842
645;23844
645;23846
645;23848
644;23851
644;23853
644;23855
644;23857
645;23859
645;23861
645;23863
644;23865
644;23867
644;23869
644;23871
644;23873
645;23875
645;23877
640;23879
644;23881
644;23883
644;23885
644;23887
646;23889
645;23891
645;23894
644;23896
644;23898
644;23900
644;23902
645;23904
645;23906
645;23908
645;23910
644;23912
643;23914
644;23916
643;23918
644;23920
645;23922
645;23924
643;23926
644;23928
644;23930
644;23932
644;23934
644;23936
645;23938
645;23940
640;23942
643;23944
644;23946
644;23948
644;23950
645;23952
645;23954
645;23956
645;23958
644;23960
644;23962
644;23964
643;23966
645;23968
645;23970
645;23972
644;23974
644;23976
644;23979
644;23981
644;23983
645;23985
645;23987
640;23989
644;23991
645;23993
644;23995
644;23997
645;23999
645;24001
645;24003
644;24005
644;24007
645;24009
644;24011
645;24013
645;24015
645;24017
645;24019
644;24022
645;24024
644;24026
644;24028
644;24030
645;24032
645;24034
643;24036
644;24038
644;24040
644;24042
645;24044
648;24046
645;24048
645;24050
644;24052
644;24054
644;24056
644;24058
644;24060
645;24062
645;24064
645;24066
644;24068
644;24070
643;24072
644;24074
645;24076
645;24078
645;24080
645;24082
644;24084
644;24086
644;24088
644;24090
643;24092
645;24094
645;24096
641;24098
644;24100
645;24102
644;24104
645;24107
649;24109
645;24111
645;24113
644;24115
644;24117
644;24119
644;24121
644;24123
645;24125
645;24127
645;24129
644;24131
644;24133
644;24135
644;24137
644;24139
645;24141
645;24143
644;24145
644;24147
645;24150
644;24152
643;24154
647;24156
645;24158
645;24160
644;24162
644;24164
645;24166
645;24168
644;24170
645;24172
645;24174
645;24176
644;24178
644;24180
645;24182
644;24184
644;24186
645;24188
645;24190
645;24192
644;24194
644;24196
644;24198
644;24200
643;24202
645;24204
645;24206
642;24208
644;24210
644;24212
645;24214
644;24216
651;24218
645;24220
645;24222
644;24224
644;24226
644;24228
643;24230
644;24232
645;24235
645;24237
645;24239
645;24241
645;24243
644;24245
645;24247
645;24249
645;24251
645;24253
644;24255
645;24257
644;24259
644;24261
644;24263
646;24265
645;24267
645;24269
643;24271
644;24273
644;24275
644;24278
645;24280
645;24282
645;24284
645;24286
644;24288
645;24290
645;24292
644;24294
644;24296
645;24298
645;24300
645;24302
644;24304
644;24306
644;24308
645;24310
645;24312
645;24314
645;24316
644;24318
644;24320
644;24322
644;24324
645;24326
651;24328
645;24330
645;24332
644;24334
644;24336
643;24338
644;24340
645;24342
645;24344
645;24346
645;24348
645;24350
644;24352
644;24354
644;24356
644;24358
645;24360
645;24363
644;24365
644;24367
644;24369
644;24371
645;24373
646;24375
645;24377
645;24379
645;24381
644;24383
645;24385
644;24387
644;24389
645;24391
645;24393
645;24395
644;24397
644;24399
644;24401
644;24403
645;24406
645;24408
645;24410
644;24412
644;24414
644;24416
644;24418
644;24420
645;24422
645;24424
645;24426
644;24428
644;24430
645;24432
645;24434
644;24436
645;24438
645;24440
641;24442
644;24444
644;24446
644;24448
644;24450
644;24452
645;24454
645;24456
645;24458
644;24460
644;24462
644;24464
645;24466
645;24468
645;24470
645;24472
644;24474
644;24476
644;24478
644;24480
643;24482
645;24484
645;24486
645;24488
645;24491
644;24493
644;24495
644;24497
644;24499
645;24501
645;24503
645;24505
644;24507
644;24509
645;24511
644;24513
644;24515
645;24517
645;24519
645;24521
644;24523
644;24525
645;24527
644;24529
645;24531
645;24534
645;24536
644;24538
643;24540
644;24542
644;24544
645;24546
645;24548
645;24550
640;24552
645;24554
644;24556
644;24558
644;24560
644;24562
645;24564
645;24566
645;24568
643;24570
644;24572
644;24574
643;24576
644;24578
645;24580
645;24582
645;24584
645;24586
644;24588
644;24590
645;24592
645;24594
645;24596
645;24598
644;24600
644;24602
644;24604
644;24606
645;24608
645;24610
645;24612
644;24614
644;24616
645;24619
645;24621
644;24623
644;24625
645;24627
645;24629
645;24631
643;24633
644;24635
644;24637
644;24639
645;24641
645;24643
645;24645
645;24647
645;24649
645;24651
644;24653
644;24655
645;24657
645;24659
640;24662
644;24664
644;24666
644;24668
645;24670
645;24672
645;24674
645;24676
644;24678
645;24680
644;24682
644;24684
644;24686
645;24688
645;24690
645;24692
644;24694
644;24696
644;24698
644;24700
644;24702
645;24704
645;24706
645;24708
644;24710
644;24712
644;24714
645;24716
643;24718
645;24720
645;24722
644;24724
644;24726
644;24728
644;24730
644;24732
644;24734
645;24736
645;24738
644;24740
644;24742
644;24744
644;24747
645;24749
645;24751
645;24753
645;24755
644;24757
644;24759
644;24761
644;24763
644;24765
645;24767
645;24769
639;24771
644;24773
643;24775
644;24777
644;24779
645;24781
645;24783
645;24785
644;24787
644;24790
644;24792
644;24794
645;24796
645;24798
645;24800
645;24802
644;24804
644;24806
644;24808
644;24810
644;24812
645;24814
645;24816
642;24818
645;24820
644;24822
644;24824
645;24826
651;24828
645;24830
645;24832
643;24834
644;24836
644;24838
644;24840
644;24842
644;24844
645;24846
645;24848
645;24850
644;24852
644;24854
645;24856
644;24858
645;24860
645;24862
645;24864
644;24866
644;24868
644;24870
645;24872
644;24875
645;24877
645;24879
639;24881
644;24883
644;24885
644;24887
644;24889
645;24891
645;24893
645;24895
644;24897
644;24899
644;24901
644;24903
644;24905
645;24907
645;24909
645;24911
644;24913
644;24915
644;24918
644;24920
644;24922
645;24924
645;24926
643;24928
645;24930
643;24932
644;24934
645;24936
650;24938
645;24940
645;24942
644;24944
644;24946
644;24948
644;24950
644;24952
645;24954
645;24956
645;24958
644;24960
644;24962
644;24964
644;24966
644;24968
645;24970
645;24972
645;24974
645;24976
645;24978
645;24980
644;24982
644;24984
645;24986
645;24988
640;24990
644;24992
644;24994
644;24996
645;24998
646;25000
645;25003
645;25005
644;25007
644;25009
644;25011
644;25013
644;25015
645;25017
645;25019
645;25021
645;25023
644;25025
645;25027
645;25029
644;25031
645;25033
645;25035
644;25037
644;25039
644;25041
644;25043
644;25046
649;25048
645;25050
645;25052
644;25054
644;25056
645;25058
644;25060
644;25062
645;25064
645;25066
645;25068
643;25070
644;25072
644;25074
644;25076
644;25078
645;25080
645;25082
644;25084
644;25086
644;25088
644;25090
644;25092
644;25094
645;25096
645;25098
641;25100
644;25102
644;25104
645;25106
645;25108
646;25110
645;25112
645;25114
645;25116
644;25118
644;25120
644;25122
644;25124
645;25126
645;25128
645;25131
643;25133
644;25135
644;25137
644;25139
644;25141
645;25143
645;25145
643;25147
645;25149
644;25151
644;25153
644;25155
648;25157
645;25159
645;25161
644;25163
644;25165
644;25167
645;25169
645;25171
645;25174
645;25176
645;25178
643;25180
643;25182
644;25184
644;25186
644;25188
645;25190
645;25192
644;25194
644;25196
645;25198
645;25200
644;25202
645;25204
645;25206
645;25208
644;25210
643;25212
645;25214
644;25216
644;25218
650;25220
645;25222
645;25224
644;25226
644;25228
643;25230
644;25232
644;25234
645;25236
645;25238
645;25240
644;25242
644;25244
644;25246
644;25248
645;25250
645;25252
645;25254
643;25256
644;25259
644;25261
644;25263
645;25265
647;25267
645;25269
645;25271
644;25273
644;25275
644;25277
644;25279
644;25281
645;25283
645;25285
645;25287
644;25289
644;25291
644;25293
644;25295
644;25297
645;25299
645;25302
645;25304
644;25306
644;25308
645;25310
645;25312
645;25314
645;25316
645;25318
645;25320
645;25322
644;25324
644;25326
644;25328
645;25330
645;25332
644;25334
644;25336
645;25338
644;25340
643;25342
644;25344
645;25346
645;25348
645;25350
644;25352
644;25354
644;25356
644;25358
644;25360
645;25362
645;25364
644;25366
645;25368
644;25370
644;25372
644;25374
646;25376
645;25378
645;25380
644;25382
644;25384
645;25387
644;25389
644;25391
645;25393
645;25395
645;25397
644;25399
644;25401
644;25403
644;25405
645;25407
645;25409
645;25411
645;25413
645;25415
644;25417
645;25419
645;25421
645;25423
645;25425
645;25427
644;25430
644;25432
643;25434
645;25436
645;25438
645;25440
645;25442
643;25444
645;25446
645;25448
645;25450
645;25452
644;25454
645;25456
645;25458
644;25460
644;25462
644;25464
644;25466
644;25468
645;25470
645;25472
645;25474
645;25476
644;25478
644;25480
644;25482
644;25484
646;25486
645;25488
645;25490
644;25492
643;25494
645;25496
644;25498
644;25500
645;25502
645;25504
645;25506
644;25508
644;25510
645;25512
643;25515
645;25517
645;25519
645;25521
645;25523
645;25525
645;25527
644;25529
644;25531
645;25533
645;25535
645;25537
643;25539
644;25541
645;25543
644;25545
644;25547
645;25549
645;25551
641;25553
644;25555
644;25558
644;25560
645;25562
644;25564
645;25566
645;25568
644;25570
645;25572
644;25574
645;25576
644;25578
645;25580
645;25582
645;25584
644;25586
644;25588
644;25590
644;25592
644;25594
645;25596
645;25598
645;25600
644;25602
644;25604
645;25606
644;25608
644;25610
645;25612
645;25614
645;25616
645;25618
643;25620
644;25622
644;25624
644;25626
645;25628
645;25630
644;25632
644;25634
644;25636
644;25638
644;25640
645;25643
645;25645
645;25647
645;25649
645;25651
644;25653
645;25655
645;25657
645;25659
645;25661
640;25663
645;25665
644;25667
644;25669
644;25671
644;25673
645;25675
645;25677
644;25679
644;25681
644;25683
644;25686
644;25688
645;25690
645;25692
645;25694
644;25696
644;25698
644;25700
644;25702
643;25704
645;25706
645;25708
