311;58504
310;58506
309;58508
309;58510
308;58512
308;58514
307;58516
307;58518
305;58520
304;58522
302;58524
302;58526
302;58528
301;58530
301;58532
302;58534
302;58536
301;58539
300;58541
299;58543
299;58545
299;58547
299;58549
298;58551
299;58553
299;58555
299;58557
298;58559
298;58561
297;58563
297;58565
297;58567
297;58569
297;58571
297;58573
297;58575
297;58577
296;58579
296;58582
295;58584
295;58586
295;58588
295;58590
296;58592
296;58594
296;58596
297;58598
296;58600
296;58602
295;58604
295;58606
295;58608
296;58610
297;58612
297;58614
297;58616
298;58618
297;58620
297;58622
296;58624
296;58626
297;58628
298;58630
299;58632
300;58634
300;58636
301;58638
301;58640
300;58642
301;58644
301;58646
301;58648
302;58650
302;58652
303;58654
304;58656
304;58658
304;58660
303;58662
303;58664
303;58667
303;58669
304;58671
304;58673
305;58675
305;58677
303;58679
303;58681
301;58683
300;58685
299;58687
298;58689
298;58691
297;58693
296;58695
294;58697
292;58699
291;58701
289;58703
287;58705
286;58707
285;58710
285;58712
283;58714
283;58716
282;58718
280;58720
279;58722
278;58724
277;58726
277;58728
276;58730
277;58732
276;58734
276;58736
276;58738
276;58740
275;58742
275;58744
275;58746
275;58748
276;58750
276;58752
277;58754
277;58756
278;58758
278;58760
279;58762
278;58764
279;58766
279;58768
281;58770
282;58772
284;58774
284;58776
285;58778
286;58780
286;58782
287;58784
287;58786
288;58788
289;58790
291;58792
293;58795
294;58797
295;58799
295;58801
296;58803
296;58805
297;58807
298;58809
299;58811
301;58813
302;58815
302;58817
303;58819
304;58821
304;58823
304;58825
305;58827
306;58829
308;58831
309;58833
310;58835
311;58838
311;58840
311;58842
311;58844
312;58846
313;58848
314;58850
315;58852
316;58854
317;58856
318;58858
318;58860
318;58862
319;58864
318;58866
320;58868
320;58870
321;58872
322;58874
323;58876
323;58878
323;58880
322;58882
322;58884
322;58886
322;58888
323;58890
324;58892
324;58894
325;58896
325;58898
324;58900
324;58902
324;58904
323;58906
323;58908
324;58910
324;58912
325;58914
325;58916
325;58918
325;58920
324;58923
323;58925
324;58927
323;58929
324;58931
325;58933
325;58935
324;58937
324;58939
323;58941
322;58943
321;58945
322;58947
321;58949
321;58951
322;58953
322;58955
322;58957
321;58959
320;58961
320;58963
319;58966
319;58968
319;58970
319;58972
319;58974
319;58976
319;58978
318;58980
317;58982
316;58984
316;58986
316;58988
316;58990
317;58992
317;58994
317;58996
316;58998
316;59000
315;59002
315;59004
314;59006
314;59008
314;59010
314;59012
315;59014
315;59016
314;59018
314;59020
313;59022
312;59024
311;59026
312;59028
312;59030
312;59032
312;59034
312;59036
312;59038
311;59040
311;59042
311;59044
311;59046
310;59048
310;59051
311;59053
311;59055
311;59057
311;59059
310;59061
309;59063
309;59065
308;59067
309;59069
309;59071
309;59073
310;59075
309;59077
309;59079
308;59081
307;59083
307;59085
306;59087
306;59089
307;59091
307;59094
307;59096
307;59098
306;59100
305;59102
304;59104
304;59106
304;59108
304;59110
304;59112
304;59114
304;59116
304;59118
303;59120
303;59122
302;59124
302;59126
302;59128
303;59130
304;59132
304;59134
305;59136
304;59138
305;59140
304;59142
303;59144
303;59146
304;59148
305;59150
306;59152
306;59154
307;59156
307;59158
306;59160
306;59162
305;59164
305;59166
306;59168
306;59170
307;59172
308;59174
307;59176
307;59179
307;59181
306;59183
305;59185
305;59187
305;59189
306;59191
306;59193
306;59195
306;59197
306;59199
305;59201
305;59203
304;59205
304;59207
304;59209
304;59211
304;59213
305;59215
304;59217
304;59219
303;59222
303;59224
302;59226
302;59228
302;59230
303;59232
304;59234
303;59236
303;59238
303;59240
302;59242
301;59244
301;59246
301;59248
301;59250
301;59252
302;59254
302;59256
302;59258
302;59260
301;59262
302;59264
304;59266
305;59268
309;59270
313;59272
318;59274
324;59276
329;59278
334;59280
338;59282
340;59284
343;59286
344;59288
346;59290
347;59292
348;59294
347;59296
346;59298
345;59300
343;59302
341;59304
339;59307
338;59309
336;59311
336;59313
334;59315
332;59317
331;59319
329;59321
327;59323
325;59325
324;59327
323;59329
322;59331
321;59333
321;59335
319;59337
318;59339
316;59341
314;59343
313;59345
312;59347
311;59350
310;59352
310;59354
310;59356
308;59358
308;59360
306;59362
305;59364
303;59366
303;59368
303;59370
303;59372
303;59374
302;59376
302;59378
301;59380
300;59382
299;59384
298;59386
299;59388
299;59390
299;59392
299;59394
300;59396
299;59398
298;59400
297;59402
296;59404
296;59406
295;59408
296;59410
296;59412
297;59414
297;59416
297;59418
297;59420
296;59422
295;59424
296;59426
296;59428
297;59430
297;59432
298;59435
298;59437
298;59439
298;59441
298;59443
297;59445
297;59447
298;59449
298;59451
300;59453
300;59455
300;59457
300;59459
299;59461
299;59463
299;59465
300;59467
300;59469
301;59471
302;59473
304;59475
304;59478
304;59480
304;59482
304;59484
304;59486
304;59488
306;59490
307;59492
308;59494
309;59496
310;59498
311;59500
310;59502
310;59504
310;59506
311;59508
313;59510
314;59512
316;59514
316;59516
317;59518
317;59520
317;59522
318;59524
319;59526
320;59528
321;59530
323;59532
323;59534
324;59536
324;59538
324;59540
324;59542
323;59544
323;59546
323;59548
323;59550
324;59552
324;59554
324;59556
323;59558
322;59560
320;59563
319;59565
318;59567
318;59569
318;59571
317;59573
317;59575
316;59577
315;59579
313;59581
312;59583
311;59585
310;59587
310;59589
309;59591
309;59593
309;59595
308;59597
307;59599
306;59601
305;59603
304;59606
303;59608
303;59610
303;59612
303;59614
303;59616
302;59618
301;59620
300;59622
299;59624
299;59626
298;59628
298;59630
298;59632
298;59634
298;59636
298;59638
297;59640
296;59642
295;59644
295;59646
295;59648
295;59650
295;59652
295;59654
296;59656
295;59658
295;59660
294;59662
293;59664
293;59666
294;59668
293;59670
294;59672
295;59674
295;59676
295;59678
294;59680
293;59682
292;59684
292;59686
292;59688
292;59691
293;59693
294;59695
294;59697
294;59699
294;59701
293;59703
292;59705
292;59707
293;59709
294;59711
294;59713
295;59715
295;59717
294;59719
294;59721
293;59723
293;59725
293;59727
293;59729
294;59731
295;59734
295;59736
296;59738
295;59740
294;59742
293;59744
293;59746
293;59748
294;59750
295;59752
296;59754
296;59756
296;59758
295;59760
295;59762
295;59764
295;59766
295;59768
296;59770
297;59772
297;59774
298;59776
298;59778
298;59780
297;59782
297;59784
296;59786
296;59788
297;59790
298;59792
299;59794
299;59796
299;59798
298;59800
298;59802
297;59804
297;59806
298;59808
298;59810
298;59812
299;59814
299;59816
299;59819
298;59821
298;59823
298;59825
298;59827
298;59829
300;59831
299;59833
300;59835
301;59837
301;59839
300;59841
300;59843
300;59845
300;59847
300;59849
301;59851
301;59853
302;59855
302;59857
302;59859
302;59862
301;59864
301;59866
301;59868
302;59870
302;59872
303;59874
303;59876
303;59878
302;59880
302;59882
302;59884
301;59886
302;59888
302;59890
304;59892
304;59894
304;59896
304;59898
304;59900
303;59902
303;59904
303;59906
303;59908
304;59910
305;59912
305;59914
306;59916
306;59918
306;59920
305;59922
305;59924
305;59926
305;59928
306;59930
307;59932
308;59934
309;59936
309;59938
309;59940
309;59942
308;59944
309;59947
309;59949
310;59951
310;59953
311;59955
312;59957
311;59959
311;59961
310;59963
309;59965
309;59967
310;59969
311;59971
311;59973
312;59975
312;59977
312;59979
312;59981
312;59983
312;59985
312;59987
313;59990
314;59992
317;59994
317;59996
318;59998
318;60000
318;60002
319;60004
319;60006
321;60008
322;60010
323;60012
325;60014
326;60016
328;60018
328;60020
329;60022
330;60024
330;60026
331;60028
333;60030
334;60032
335;60034
336;60036
336;60038
337;60040
337;60042
337;60044
338;60046
339;60048
341;60050
342;60052
343;60054
344;60056
345;60058
345;60060
345;60062
345;60064
346;60066
347;60068
348;60070
349;60072
350;60075
351;60077
351;60079
351;60081
350;60083
350;60085
350;60087
350;60089
350;60091
350;60093
350;60095
350;60097
349;60099
348;60101
346;60103
345;60105
344;60107
344;60109
343;60111
343;60113
341;60115
340;60118
339;60120
337;60122
336;60124
334;60126
334;60128
334;60130
334;60132
336;60134
337;60136
339;60138
342;60140
345;60142
349;60144
353;60146
356;60148
359;60150
360;60152
361;60154
361;60156
359;60158
359;60160
356;60162
354;60164
352;60166
350;60168
348;60170
345;60172
343;60174
341;60176
338;60178
335;60180
332;60182
329;60184
327;60186
324;60188
323;60190
321;60192
319;60194
317;60196
315;60198
313;60200
310;60203
308;60205
306;60207
304;60209
303;60211
302;60213
301;60215
300;60217
298;60219
296;60221
294;60223
293;60225
292;60227
291;60229
291;60231
291;60233
289;60235
288;60237
287;60239
286;60241
285;60243
283;60246
283;60248
283;60250
283;60252
283;60254
282;60256
282;60258
281;60260
280;60262
279;60264
278;60266
279;60268
279;60270
279;60272
279;60274
279;60276
278;60278
278;60280
277;60282
278;60284
276;60286
277;60288
277;60290
277;60292
278;60294
278;60296
278;60298
277;60300
277;60302
276;60304
276;60306
277;60308
277;60310
277;60312
278;60314
278;60316
278;60318
278;60320
278;60322
277;60324
278;60326
278;60328
279;60331
280;60333
281;60335
281;60337
281;60339
281;60341
281;60343
280;60345
281;60347
282;60349
283;60351
284;60353
284;60355
285;60357
285;60359
285;60361
286;60363
286;60365
287;60367
288;60369
289;60371
291;60374
291;60376
292;60378
292;60380
292;60382
293;60384
293;60386
295;60388
295;60390
297;60392
298;60394
299;60396
300;60398
300;60400
300;60402
300;60404
300;60406
301;60408
301;60410
302;60412
302;60414
302;60416
302;60418
302;60420
301;60422
300;60424
300;60426
299;60428
300;60430
299;60432
299;60434
299;60436
298;60438
297;60440
296;60442
295;60444
294;60446
293;60448
293;60450
293;60452
293;60454
293;60456
292;60459
291;60461
290;60463
289;60465
289;60467
289;60469
289;60471
289;60473
289;60475
289;60477
288;60479
288;60481
287;60483
287;60485
286;60487
286;60489
286;60491
287;60493
286;60495
287;60497
285;60499
286;60502
285;60504
285;60506
285;60508
286;60510
287;60512
288;60514
287;60516
288;60518
287;60520
286;60522
286;60524
286;60526
287;60528
287;60530
287;60532
288;60534
288;60536
288;60538
287;60540
288;60542
287;60544
287;60546
287;60548
287;60550
288;60552
288;60554
289;60556
288;60558
288;60560
288;60562
287;60564
288;60566
288;60568
289;60570
289;60572
290;60574
290;60576
290;60578
290;60580
290;60582
290;60584
290;60587
290;60589
291;60591
292;60593
292;60595
292;60597
293;60599
292;60601
292;60603
291;60605
292;60607
292;60609
293;60611
294;60613
294;60615
295;60617
295;60619
294;60621
294;60623
294;60625
294;60627
294;60630
295;60632
296;60634
297;60636
297;60638
298;60640
297;60642
296;60644
296;60646
297;60648
297;60650
298;60652
299;60654
300;60656
300;60658
299;60660
299;60662
299;60664
299;60666
300;60668
300;60670
301;60672
302;60674
303;60676
303;60678
303;60680
304;60682
302;60684
303;60686
303;60688
304;60690
305;60692
305;60694
306;60696
306;60698
306;60700
306;60702
305;60704
305;60706
306;60708
306;60710
307;60712
308;60715
308;60717
308;60719
308;60721
307;60723
307;60725
307;60727
307;60729
308;60731
309;60733
309;60735
309;60737
309;60739
309;60741
309;60743
308;60745
309;60747
309;60749
310;60751
310;60753
311;60755
311;60758
311;60760
310;60762
309;60764
309;60766
310;60768
310;60770
311;60772
311;60774
312;60776
311;60778
311;60780
311;60782
310;60784
310;60786
310;60788
311;60790
311;60792
311;60794
312;60796
312;60798
312;60800
311;60802
310;60804
310;60806
310;60808
311;60810
311;60812
312;60814
312;60816
312;60818
312;60820
311;60822
311;60824
311;60826
311;60828
311;60830
312;60832
312;60834
312;60836
312;60838
312;60840
312;60843
311;60845
311;60847
311;60849
311;60851
312;60853
312;60855
313;60857
312;60859
312;60861
311;60863
311;60865
311;60867
311;60869
311;60871
312;60873
312;60875
312;60877
313;60879
312;60881
312;60883
311;60886
311;60888
311;60890
312;60892
313;60894
313;60896
312;60898
312;60900
311;60902
311;60904
310;60906
311;60908
311;60910
311;60912
312;60914
313;60916
312;60918
312;60920
311;60922
310;60924
310;60926
310;60928
310;60930
311;60932
310;60934
311;60936
311;60938
311;60940
310;60942
310;60944
309;60946
309;60948
309;60950
310;60952
310;60954
311;60956
310;60958
310;60960
309;60962
309;60964
309;60966
309;60968
309;60971
311;60973
310;60975
311;60977
310;60979
310;60981
309;60983
309;60985
308;60987
309;60989
310;60991
310;60993
311;60995
311;60997
311;60999
311;61001
311;61003
311;61005
311;61007
312;61009
312;61011
313;61014
313;61016
314;61018
314;61020
313;61022
312;61024
313;61026
312;61028
313;61030
314;61032
314;61034
314;61036
314;61038
313;61040
312;61042
312;61044
312;61046
311;61048
312;61050
312;61052
312;61054
312;61056
312;61058
312;61060
311;61062
310;61064
310;61066
310;61068
310;61070
310;61072
310;61074
310;61076
310;61078
309;61080
308;61082
307;61084
307;61086
307;61088
307;61090
308;61092
308;61094
308;61096
308;61099
308;61101
306;61103
306;61105
305;61107
305;61109
305;61111
306;61113
306;61115
306;61117
306;61119
306;61121
307;61123
309;61125
312;61127
316;61129
321;61131
326;61133
332;61135
338;61137
342;61139
344;61142
346;61144
348;61146
348;61148
350;61150
350;61152
349;61154
349;61156
348;61158
346;61160
344;61162
342;61164
340;61166
338;61168
337;61170
336;61172
334;61174
333;61176
332;61178
330;61180
328;61182
327;61184
326;61186
325;61188
323;61190
323;61192
322;61194
321;61196
319;61198
318;61200
316;61202
315;61204
314;61206
312;61208
312;61210
312;61212
311;61214
311;61216
310;61218
309;61220
307;61222
307;61224
306;61227
305;61229
305;61231
305;61233
305;61235
304;61237
304;61239
303;61241
302;61243
301;61245
301;61247
300;61249
301;61251
301;61253
301;61255
300;61257
300;61259
300;61261
299;61263
298;61265
298;61267
298;61270
299;61272
299;61274
299;61276
299;61278
299;61280
298;61282
297;61284
297;61286
297;61288
297;61290
298;61292
298;61294
299;61296
299;61298
298;61300
298;61302
297;61304
297;61306
298;61308
298;61310
298;61312
299;61314
299;61316
300;61318
299;61320
299;61322
298;61324
298;61326
299;61328
299;61330
300;61332
301;61334
301;61336
302;61338
302;61340
302;61342
302;61344
302;61346
303;61348
304;61350
304;61352
306;61355
306;61357
307;61359
307;61361
307;61363
308;61365
308;61367
309;61369
310;61371
311;61373
312;61375
313;61377
314;61379
314;61381
314;61383
314;61385
315;61387
315;61389
316;61391
317;61393
317;61395
318;61398
317;61400
317;61402
316;61404
315;61406
315;61408
315;61410
315;61412
315;61414
316;61416
314;61418
312;61420
311;61422
310;61424
309;61426
307;61428
307;61430
306;61432
305;61434
305;61436
303;61438
302;61440
301;61442
300;61444
297;61446
296;61448
295;61450
295;61452
294;61454
293;61456
293;61458
291;61460
289;61462
288;61464
287;61466
287;61468
286;61470
286;61472
286;61474
286;61476
285;61478
285;61480
283;61483
283;61485
282;61487
283;61489
284;61491
284;61493
285;61495
284;61497
284;61499
284;61501
283;61503
283;61505
283;61507
284;61509
285;61511
285;61513
286;61515
286;61517
286;61519
286;61521
286;61523
286;61526
286;61528
287;61530
288;61532
288;61534
289;61536
290;61538
289;61540
289;61542
289;61544
289;61546
289;61548
290;61550
292;61552
292;61554
292;61556
293;61558
292;61560
293;61562
292;61564
292;61566
292;61568
293;61570
293;61572
295;61574
295;61576
295;61578
295;61580
295;61582
295;61584
295;61586
295;61588
296;61590
297;61592
298;61594
298;61596
298;61598
298;61600
298;61602
298;61604
298;61606
298;61608
299;61611
300;61613
301;61615
302;61617
301;61619
301;61621
301;61623
301;61625
301;61627
302;61629
303;61631
304;61633
304;61635
305;61637
305;61639
305;61641
304;61643
305;61645
305;61647
306;61649
307;61651
307;61654
309;61656
308;61658
308;61660
308;61662
307;61664
307;61666
307;61668
308;61670
309;61672
309;61674
310;61676
310;61678
309;61680
309;61682
308;61684
308;61686
309;61688
309;61690
311;61692
310;61694
310;61696
311;61698
310;61700
309;61702
309;61704
309;61706
308;61708
309;61710
309;61712
310;61714
310;61716
310;61718
310;61720
309;61722
308;61724
308;61726
308;61728
309;61730
309;61732
311;61734
310;61736
310;61739
310;61741
309;61743
309;61745
309;61747
309;61749
310;61751
310;61753
311;61755
311;61757
311;61759
310;61761
309;61763
309;61765
309;61767
310;61769
310;61771
311;61773
311;61775
311;61777
311;61779
311;61782
310;61784
310;61786
310;61788
311;61790
312;61792
312;61794
312;61796
312;61798
311;61800
311;61802
311;61804
311;61806
311;61808
311;61810
312;61812
313;61814
313;61816
312;61818
312;61820
311;61822
311;61824
311;61826
311;61828
311;61830
311;61832
311;61834
312;61836
312;61838
311;61840
310;61842
310;61844
310;61846
310;61848
310;61850
310;61852
311;61854
311;61856
311;61858
311;61860
310;61862
309;61864
309;61867
309;61869
311;61871
311;61873
311;61875
311;61877
311;61879
311;61881
310;61883
310;61885
310;61887
311;61889
311;61891
312;61893
312;61895
312;61897
312;61899
312;61901
311;61903
311;61905
311;61907
311;61910
312;61912
312;61914
312;61916
313;61918
312;61920
311;61922
311;61924
310;61926
310;61928
310;61930
311;61932
311;61934
311;61936
311;61938
311;61940
310;61942
310;61944
309;61946
309;61948
310;61950
310;61952
311;61954
311;61956
310;61958
310;61960
309;61962
309;61964
308;61966
308;61968
308;61970
308;61972
308;61974
308;61976
308;61978
307;61980
305;61982
305;61984
305;61986
305;61988
305;61990
305;61992
305;61995
306;61997
305;61999
305;62001
303;62003
303;62005
303;62007
304;62009
304;62011
304;62013
305;62015
305;62017
305;62019
305;62021
305;62023
304;62025
304;62027
305;62029
305;62031
306;62033
306;62035
307;62038
306;62040
305;62042
305;62044
305;62046
306;62048
306;62050
307;62052
308;62054
309;62056
309;62058
310;62060
310;62062
309;62064
310;62066
310;62068
311;62070
312;62072
313;62074
314;62076
314;62078
314;62080
315;62082
314;62084
315;62086
315;62088
316;62090
317;62092
318;62094
318;62096
318;62098
318;62100
317;62102
317;62104
317;62106
317;62108
317;62110
317;62112
318;62114
318;62116
318;62118
317;62120
316;62123
315;62125
315;62127
315;62129
315;62131
315;62133
316;62135
315;62137
314;62139
314;62141
313;62143
312;62145
312;62147
312;62149
312;62151
312;62153
312;62155
312;62157
312;62159
311;62161
310;62163
309;62166
309;62168
310;62170
310;62172
310;62174
310;62176
309;62178
308;62180
307;62182
307;62184
305;62186
306;62188
305;62190
305;62192
305;62194
306;62196
307;62198
308;62200
309;62202
311;62204
315;62206
316;62208
322;62210
328;62212
334;62214
340;62216
344;62218
347;62220
349;62222
350;62224
351;62226
351;62228
351;62230
351;62232
351;62234
350;62236
349;62238
347;62240
344;62242
341;62244
339;62246
338;62248
336;62251
335;62253
334;62255
333;62257
331;62259
329;62261
327;62263
325;62265
323;62267
321;62269
320;62271
319;62273
318;62275
317;62277
315;62279
313;62281
311;62283
309;62285
308;62287
308;62289
307;62291
306;62294
306;62296
305;62298
303;62300
302;62302
301;62304
300;62306
299;62308
299;62310
298;62312
298;62314
298;62316
297;62318
297;62320
296;62322
295;62324
294;62326
294;62328
294;62330
295;62332
295;62334
295;62336
295;62338
294;62340
294;62342
293;62344
292;62346
293;62348
293;62350
294;62352
294;62354
295;62356
294;62358
294;62360
293;62362
293;62364
293;62366
293;62368
293;62370
294;62372
295;62374
295;62376
295;62379
295;62381
294;62383
294;62385
294;62387
295;62389
295;62391
296;62393
296;62395
296;62397
296;62399
296;62401
295;62403
295;62405
296;62407
296;62409
296;62411
297;62413
298;62415
299;62417
298;62419
298;62422
298;62424
299;62426
299;62428
300;62430
301;62432
302;62434
303;62436
303;62438
303;62440
303;62442
304;62444
304;62446
305;62448
306;62450
308;62452
309;62454
310;62456
311;62458
311;62460
312;62462
311;62464
312;62466
313;62468
314;62470
315;62472
316;62474
317;62476
318;62478
318;62480
317;62482
317;62484
317;62486
317;62488
318;62490
318;62492
318;62494
318;62496
318;62498
318;62500
316;62502
316;62504
314;62507
314;62509
314;62511
314;62513
314;62515
313;62517
313;62519
311;62521
310;62523
309;62525
308;62527
308;62529
308;62531
308;62533
307;62535
307;62537
306;62539
305;62541
304;62543
303;62545
302;62547
302;62550
303;62552
302;62554
303;62556
302;62558
301;62560
300;62562
299;62564
299;62566
298;62568
298;62570
298;62572
299;62574
299;62576
298;62578
298;62580
297;62582
296;62584
295;62586
295;62588
296;62590
296;62592
297;62594
297;62596
297;62598
296;62600
296;62602
295;62604
295;62606
295;62608
295;62610
296;62612
296;62614
296;62616
297;62618
296;62620
296;62622
295;62624
295;62626
295;62628
295;62630
296;62632
297;62635
297;62637
297;62639
296;62641
296;62643
296;62645
296;62647
296;62649
297;62651
297;62653
298;62655
298;62657
299;62659
297;62661
298;62663
297;62665
297;62667
297;62669
299;62671
299;62673
300;62675
299;62678
300;62680
299;62682
299;62684
298;62686
299;62688
299;62690
301;62692
300;62694
301;62696
300;62698
300;62700
300;62702
299;62704
300;62706
300;62708
300;62710
301;62712
301;62714
302;62716
301;62718
301;62720
301;62722
300;62724
300;62726
300;62728
301;62730
301;62732
302;62734
303;62736
303;62738
303;62740
302;62742
302;62744
301;62746
302;62748
302;62750
303;62752
303;62754
304;62756
304;62758
303;62760
303;62763
302;62765
302;62767
303;62769
303;62771
304;62773
304;62775
305;62777
304;62779
305;62781
303;62783
303;62785
303;62787
304;62789
305;62791
305;62793
306;62795
306;62797
305;62799
305;62801
305;62803
305;62806
304;62808
305;62810
306;62812
306;62814
307;62816
307;62818
307;62820
306;62822
306;62824
305;62826
305;62828
306;62830
307;62832
307;62834
308;62836
308;62838
307;62840
307;62842
306;62844
306;62846
306;62848
306;62850
307;62852
307;62854
308;62856
308;62858
308;62860
307;62862
306;62864
306;62866
306;62868
306;62870
307;62872
308;62874
308;62876
308;62878
307;62880
307;62882
307;62884
306;62886
307;62888
307;62891
308;62893
308;62895
309;62897
309;62899
308;62901
308;62903
308;62905
308;62907
308;62909
309;62911
309;62913
310;62915
311;62917
310;62919
310;62921
309;62923
309;62925
309;62927
310;62929
311;62931
312;62934
312;62936
312;62938
312;62940
312;62942
312;62944
312;62946
312;62948
313;62950
314;62952
315;62954
316;62956
317;62958
317;62960
317;62962
316;62964
317;62966
317;62968
318;62970
319;62972
320;62974
320;62976
320;62978
320;62980
320;62982
320;62984
321;62986
321;62988
322;62990
323;62992
323;62994
324;62996
324;62998
324;63000
324;63002
323;63004
324;63006
324;63008
325;63010
326;63012
327;63014
327;63016
327;63019
328;63021
327;63023
327;63025
327;63027
327;63029
328;63031
329;63033
330;63035
331;63037
331;63039
331;63041
331;63043
331;63045
332;63047
333;63049
335;63051
336;63053
338;63055
339;63057
339;63059
341;63062
340;63064
340;63066
341;63068
342;63070
343;63072
343;63074
344;63076
343;63078
343;63080
342;63082
341;63084
340;63086
340;63088
340;63090
339;63092
338;63094
338;63096
336;63098
334;63100
332;63102
331;63104
329;63106
327;63108
326;63110
324;63112
324;63114
322;63116
321;63118
319;63120
318;63122
315;63124
314;63126
313;63128
312;63130
311;63132
311;63134
310;63136
308;63138
307;63140
305;63142
303;63144
302;63147
300;63149
301;63151
298;63153
298;63155
297;63157
296;63159
294;63161
292;63163
291;63165
290;63167
289;63169
290;63171
289;63173
289;63175
289;63177
289;63179
288;63181
287;63183
287;63185
287;63187
288;63190
288;63192
289;63194
289;63196
289;63198
289;63200
288;63202
288;63204
287;63206
287;63208
288;63210
288;63212
289;63214
290;63216
290;63218
290;63220
289;63222
289;63224
288;63226
289;63228
289;63230
289;63232
290;63234
290;63236
289;63238
288;63240
287;63242
287;63244
286;63246
287;63248
287;63250
287;63252
288;63254
288;63256
288;63258
287;63260
287;63262
286;63264
286;63266
286;63268
286;63270
287;63272
287;63275
287;63277
286;63279
286;63281
285;63283
284;63285
284;63287
285;63289
287;63291
289;63293
291;63295
295;63297
298;63299
302;63301
307;63303
313;63305
319;63307
324;63309
330;63311
335;63313
338;63315
340;63318
340;63320
341;63322
340;63324
340;63326
339;63328
338;63330
337;63332
337;63334
335;63336
333;63338
331;63340
329;63342
327;63344
325;63346
324;63348
323;63350
322;63352
321;63354
320;63356
318;63358
317;63360
315;63362
313;63364
311;63366
309;63368
309;63370
308;63372
307;63374
307;63376
306;63378
305;63380
303;63382
302;63384
300;63386
300;63388
299;63390
299;63392
299;63394
299;63396
297;63398
296;63400
295;63403
294;63405
294;63407
293;63409
293;63411
294;63413
294;63415
294;63417
293;63419
293;63421
292;63423
291;63425
291;63427
291;63429
291;63431
291;63433
291;63435
292;63437
291;63439
290;63441
290;63443
290;63446
289;63448
290;63450
290;63452
290;63454
290;63456
290;63458
289;63460
289;63462
288;63464
288;63466
288;63468
289;63470
290;63472
291;63474
291;63476
291;63478
291;63480
291;63482
291;63484
291;63486
291;63488
291;63490
293;63492
293;63494
295;63496
294;63498
294;63500
294;63502
294;63504
295;63506
295;63508
296;63510
297;63512
298;63514
299;63516
300;63518
300;63520
299;63522
299;63524
300;63526
301;63528
302;63531
304;63533
305;63535
306;63537
308;63539
308;63541
309;63543
309;63545
310;63547
311;63549
312;63551
314;63553
315;63555
316;63557
317;63559
317;63561
317;63563
318;63565
319;63567
319;63569
320;63571
321;63574
322;63576
322;63578
323;63580
322;63582
321;63584
320;63586
320;63588
320;63590
320;63592
320;63594
320;63596
319;63598
318;63600
318;63602
316;63604
315;63606
315;63608
314;63610
314;63612
314;63614
314;63616
313;63618
311;63620
311;63622
309;63624
308;63626
307;63628
306;63630
306;63632
306;63634
306;63636
305;63638
304;63640
303;63642
302;63644
302;63646
301;63648
301;63650
301;63652
302;63654
301;63656
301;63659
300;63661
298;63663
298;63665
298;63667
297;63669
298;63671
298;63673
298;63675
298;63677
297;63679
297;63681
296;63683
295;63685
295;63687
295;63689
295;63691
296;63693
296;63695
296;63697
295;63699
294;63702
294;63704
293;63706
293;63708
293;63710
293;63712
294;63714
294;63716
293;63718
293;63720
292;63722
291;63724
291;63726
291;63728
291;63730
291;63732
291;63734
292;63736
292;63738
291;63740
291;63742
290;63744
290;63746
290;63748
290;63750
291;63752
291;63754
291;63756
291;63758
291;63760
290;63762
290;63764
289;63766
289;63768
290;63770
291;63772
291;63774
292;63776
292;63778
292;63780
291;63782
291;63784
291;63787
291;63789
292;63791
293;63793
294;63795
294;63797
294;63799
293;63801
293;63803
293;63805
293;63807
293;63809
294;63811
295;63813
295;63815
296;63817
295;63819
295;63821
295;63823
294;63825
294;63827
295;63830
296;63832
297;63834
297;63836
297;63838
297;63840
297;63842
296;63844
296;63846
296;63848
297;63850
297;63852
298;63854
298;63856
298;63858
298;63860
298;63862
297;63864
297;63866
298;63868
298;63870
299;63872
300;63874
300;63876
300;63878
300;63880
300;63882
300;63884
299;63886
300;63888
301;63890
301;63892
302;63894
303;63896
303;63898
303;63900
303;63902
302;63904
302;63906
303;63908
304;63910
304;63912
305;63915
306;63917
305;63919
306;63921
305;63923
306;63925
305;63927
306;63929
306;63931
307;63933
308;63935
308;63937
308;63939
307;63941
307;63943
307;63945
307;63947
308;63949
308;63951
309;63953
310;63955
309;63958
310;63960
309;63962
309;63964
309;63966
309;63968
310;63970
310;63972
311;63974
311;63976
311;63978
311;63980
311;63982
310;63984
310;63986
310;63988
310;63990
311;63992
311;63994
312;63996
312;63998
312;64000
311;64002
311;64004
311;64006
310;64008
311;64010
311;64012
313;64014
312;64016
313;64018
312;64020
312;64022
311;64024
311;64026
311;64028
312;64030
312;64032
313;64034
313;64036
313;64038
312;64040
312;64043
311;64045
311;64047
311;64049
313;64051
312;64053
313;64055
313;64057
313;64059
312;64061
311;64063
311;64065
311;64067
311;64069
311;64071
312;64073
312;64075
312;64077
312;64079
311;64081
312;64083
310;64086
311;64088
311;64090
311;64092
312;64094
312;64096
312;64098
312;64100
311;64102
311;64104
310;64106
310;64108
310;64110
311;64112
311;64114
311;64116
311;64118
311;64120
310;64122
310;64124
309;64126
310;64128
310;64130
310;64132
311;64134
311;64136
311;64138
310;64140
310;64142
309;64144
308;64146
309;64148
309;64150
310;64152
310;64154
310;64156
310;64158
310;64160
309;64162
309;64164
308;64166
308;64168
308;64171
309;64173
310;64175
309;64177
309;64179
308;64181
308;64183
307;64185
307;64187
307;64189
307;64191
308;64193
308;64195
308;64197
308;64199
307;64201
307;64203
306;64205
306;64207
306;64209
307;64211
307;64214
307;64216
307;64218
307;64220
307;64222
306;64224
306;64226
305;64228
306;64230
306;64232
307;64234
307;64236
307;64238
307;64240
306;64242
306;64244
306;64246
306;64248
306;64250
307;64252
307;64254
308;64256
308;64258
307;64260
307;64262
307;64264
306;64266
307;64268
306;64270
307;64272
308;64274
309;64276
309;64278
309;64280
309;64282
309;64284
309;64286
309;64288
310;64290
311;64292
311;64294
312;64296
311;64299
311;64301
310;64303
310;64305
310;64307
310;64309
310;64311
311;64313
311;64315
312;64317
311;64319
310;64321
309;64323
309;64325
308;64327
309;64329
309;64331
309;64333
310;64335
309;64337
309;64339
309;64342
308;64344
308;64346
308;64348
308;64350
309;64352
309;64354
309;64356
309;64358
308;64360
308;64362
307;64364
307;64366
307;64368
308;64370
308;64372
308;64374
308;64376
308;64378
307;64380
307;64382
306;64384
305;64386
305;64388
306;64390
306;64392
307;64394
308;64396
310;64398
312;64400
315;64402
319;64404
323;64406
329;64408
336;64410
342;64412
347;64414
352;64416
354;64418
355;64420
356;64422
356;64424
356;64427
356;64429
356;64431
355;64433
354;64435
353;64437
351;64439
349;64441
346;64443
344;64445
341;64447
340;64449
339;64451
338;64453
337;64455
336;64457
334;64459
331;64461
329;64463
327;64465
325;64467
324;64470
323;64472
321;64474
320;64476
319;64478
317;64480
315;64482
313;64484
312;64486
311;64488
310;64490
309;64492
308;64494
307;64496
306;64498
305;64500
304;64502
302;64504
301;64506
301;64508
300;64510
300;64512
300;64514
300;64516
299;64518
299;64520
298;64522
297;64524
296;64526
295;64528
295;64530
295;64532
296;64534
296;64536
295;64538
295;64540
294;64542
293;64544
293;64546
293;64548
294;64550
294;64552
295;64555
295;64557
295;64559
294;64561
293;64563
293;64565
293;64567
293;64569
294;64571
294;64573
295;64575
295;64577
295;64579
295;64581
294;64583
294;64585
294;64587
294;64589
295;64591
296;64593
297;64595
296;64598
297;64600
296;64602
296;64604
296;64606
296;64608
297;64610
298;64612
299;64614
299;64616
300;64618
300;64620
300;64622
300;64624
300;64626
301;64628
302;64630
303;64632
304;64634
305;64636
306;64638
306;64640
306;64642
307;64644
307;64646
308;64648
309;64650
310;64652
312;64654
313;64656
314;64658
315;64660
314;64662
315;64664
316;64666
316;64668
318;64670
319;64672
320;64674
321;64676
321;64678
321;64680
320;64683
320;64685
320;64687
320;64689
320;64691
321;64693
321;64695
321;64697
320;64699
320;64701
319;64703
317;64705
317;64707
317;64709
316;64711
316;64713
316;64715
316;64717
314;64719
313;64721
311;64723
311;64726
310;64728
309;64730
309;64732
309;64734
308;64736
308;64738
307;64740
306;64742
305;64744
304;64746
303;64748
303;64750
303;64752
303;64754
303;64756
303;64758
302;64760
301;64762
301;64764
300;64766
300;64768
300;64770
300;64772
301;64774
301;64776
301;64778
300;64780
300;64782
299;64784
298;64786
299;64788
298;64790
299;64792
299;64794
299;64796
299;64798
299;64800
298;64802
297;64804
297;64806
297;64808
297;64811
298;64813
298;64815
298;64817
297;64819
297;64821
296;64823
296;64825
295;64827
296;64829
296;64831
296;64833
297;64835
297;64837
296;64839
296;64841
295;64843
295;64845
294;64847
295;64849
295;64851
296;64854
296;64856
297;64858
296;64860
296;64862
295;64864
295;64866
296;64868
296;64870
297;64872
297;64874
297;64876
298;64878
297;64880
297;64882
297;64884
296;64886
297;64888
297;64890
298;64892
299;64894
299;64896
299;64898
299;64900
298;64902
298;64904
297;64906
298;64908
298;64910
299;64912
299;64914
300;64916
300;64918
300;64920
299;64922
299;64924
298;64926
299;64928
299;64930
300;64932
300;64934
301;64936
301;64939
300;64941
300;64943
299;64945
300;64947
300;64949
301;64951
302;64953
302;64955
303;64957
302;64959
302;64961
302;64963
302;64965
302;64967
302;64969
303;64971
303;64973
304;64975
304;64977
303;64979
303;64982
302;64984
302;64986
301;64988
302;64990
302;64992
303;64994
303;64996
303;64998
302;65000
301;65002
301;65004
300;65006
300;65008
300;65010
300;65012
301;65014
301;65016
301;65018
300;65020
301;65022
300;65024
299;65026
300;65028
300;65030
300;65032
301;65034
301;65036
302;65038
301;65040
300;65042
300;65044
300;65046
300;65048
300;65050
301;65052
302;65054
302;65056
302;65058
302;65060
301;65062
302;65064
301;65067
301;65069
302;65071
303;65073
304;65075
304;65077
304;65079
303;65081
303;65083
302;65085
302;65087
303;65089
303;65091
303;65093
304;65095
304;65097
304;65099
303;65101
303;65103
303;65105
303;65107
303;65110
304;65112
304;65114
305;65116
304;65118
304;65120
304;65122
303;65124
303;65126
303;65128
303;65130
304;65132
304;65134
305;65136
305;65138
304;65140
304;65142
303;65144
303;65146
304;65148
304;65150
304;65152
305;65154
305;65156
306;65158
305;65160
304;65162
304;65164
304;65166
304;65168
304;65170
305;65172
306;65174
306;65176
306;65178
306;65180
305;65182
305;65184
305;65186
305;65188
306;65190
306;65192
306;65195
307;65197
306;65199
306;65201
305;65203
305;65205
305;65207
305;65209
305;65211
306;65213
307;65215
307;65217
307;65219
306;65221
306;65223
305;65225
305;65227
305;65229
306;65231
307;65233
307;65235
308;65238
307;65240
307;65242
305;65244
305;65246
305;65248
306;65250
306;65252
307;65254
307;65256
307;65258
307;65260
306;65262
305;65264
305;65266
305;65268
306;65270
306;65272
307;65274
308;65276
307;65278
307;65280
306;65282
306;65284
305;65286
306;65288
307;65290
307;65292
308;65294
308;65296
308;65298
307;65300
307;65302
307;65304
306;65306
306;65308
307;65310
308;65312
308;65314
309;65316
308;65318
309;65320
308;65323
308;65325
307;65327
308;65329
308;65331
309;65333
309;65335
310;65337
309;65339
310;65341
308;65343
308;65345
308;65347
308;65349
309;65351
309;65353
310;65355
310;65357
310;65359
309;65361
309;65363
309;65366
308;65368
309;65370
309;65372
310;65374
310;65376
310;65378
309;65380
309;65382
308;65384
308;65386
309;65388
309;65390
310;65392
311;65394
311;65396
312;65398
311;65400
311;65402
310;65404
310;65406
310;65408
310;65410
311;65412
311;65414
312;65416
311;65418
311;65420
311;65422
309;65424
309;65426
309;65428
310;65430
309;65432
310;65434
309;65436
310;65438
308;65440
308;65442
307;65444
307;65446
307;65448
307;65451
307;65453
308;65455
307;65457
307;65459
307;65461
306;65463
305;65465
305;65467
305;65469
306;65471
306;65473
306;65475
307;65477
306;65479
306;65481
305;65483
304;65485
304;65487
304;65489
304;65491
304;65494
305;65496
304;65498
304;65500
303;65502
303;65504
304;65506
305;65508
308;65510
312;65512
317;65514
322;65516
328;65518
334;65520
339;65522
343;65524
347;65526
350;65528
351;65530
353;65532
353;65534
354;65536
354;65538
353;65540
352;65542
350;65544
348;65546
346;65548
345;65550
343;65552
342;65554
341;65556
339;65558
336;65560
335;65562
333;65564
331;65566
329;65568
329;65570
327;65572
326;65574
324;65576
323;65579
320;65581
319;65583
317;65585
315;65587
314;65589
313;65591
312;65593
312;65595
311;65597
310;65599
308;65601
307;65603
305;65605
305;65607
304;65609
303;65611
303;65613
303;65615
302;65617
302;65619
300;65622
299;65624
298;65626
298;65628
298;65630
298;65632
298;65634
298;65636
298;65638
297;65640
296;65642
296;65644
295;65646
295;65648
295;65650
296;65652
297;65654
296;65656
296;65658
296;65660
295;65662
295;65664
294;65666
294;65668
294;65670
295;65672
295;65674
296;65676
296;65678
295;65680
295;65682
295;65684
294;65686
294;65688
294;65690
295;65692
295;65694
297;65696
296;65698
297;65700
295;65702
295;65704
295;65707
295;65709
296;65711
297;65713
297;65715
298;65717
298;65719
297;65721
297;65723
297;65725
297;65727
297;65729
298;65731
299;65733
300;65735
301;65737
301;65739
301;65741
301;65743
301;65745
302;65747
303;65750
304;65752
305;65754
306;65756
307;65758
308;65760
308;65762
308;65764
309;65766
309;65768
311;65770
312;65772
313;65774
315;65776
315;65778
315;65780
316;65782
315;65784
316;65786
316;65788
317;65790
317;65792
318;65794
319;65796
318;65798
319;65800
318;65802
317;65804
316;65806
316;65808
315;65810
315;65812
315;65814
315;65816
314;65818
313;65820
312;65822
311;65824
310;65826
309;65828
309;65830
309;65832
309;65835
308;65837
308;65839
306;65841
305;65843
304;65845
303;65847
303;65849
303;65851
303;65853
303;65855
302;65857
301;65859
300;65861
299;65863
299;65865
298;65867
298;65869
298;65871
299;65873
299;65875
298;65878
298;65880
297;65882
296;65884
296;65886
295;65888
296;65890
296;65892
296;65894
296;65896
296;65898
296;65900
295;65902
294;65904
294;65906
294;65908
294;65910
295;65912
295;65914
295;65916
295;65918
295;65920
295;65922
294;65924
294;65926
293;65928
294;65930
294;65932
295;65934
296;65936
295;65938
295;65940
295;65942
294;65944
294;65946
294;65948
295;65950
295;65952
296;65954
296;65956
296;65958
296;65960
296;65963
295;65965
295;65967
295;65969
296;65971
296;65973
297;65975
297;65977
298;65979
297;65981
297;65983
296;65985
297;65987
297;65989
298;65991
299;65993
299;65995
299;65997
299;65999
299;66001
299;66003
298;66006
299;66008
299;66010
300;66012
301;66014
301;66016
301;66018
302;66020
301;66022
300;66024
300;66026
301;66028
301;66030
302;66032
303;66034
303;66036
303;66038
303;66040
302;66042
302;66044
301;66046
301;66048
302;66050
302;66052
303;66054
304;66056
304;66058
304;66060
303;66062
302;66064
303;66066
303;66068
303;66070
304;66072
304;66074
305;66076
304;66078
304;66080
304;66082
303;66084
303;66086
303;66088
304;66091
304;66093
305;66095
305;66097
305;66099
305;66101
304;66103
304;66105
304;66107
304;66109
304;66111
305;66113
306;66115
306;66117
305;66119
305;66121
304;66123
304;66125
304;66127
304;66129
305;66131
306;66134
306;66136
306;66138
306;66140
305;66142
305;66144
304;66146
305;66148
305;66150
305;66152
306;66154
306;66156
306;66158
307;66160
305;66162
306;66164
305;66166
305;66168
305;66170
306;66172
307;66174
307;66176
307;66178
307;66180
306;66182
306;66184
305;66186
305;66188
306;66190
307;66192
307;66194
307;66196
307;66198
307;66200
307;66202
306;66204
306;66206
306;66208
306;66210
307;66212
307;66214
308;66216
308;66219
307;66221
307;66223
306;66225
306;66227
307;66229
307;66231
308;66233
308;66235
309;66237
308;66239
308;66241
307;66243
307;66245
306;66247
307;66249
307;66251
308;66253
308;66255
308;66257
308;66259
307;66262
307;66264
306;66266
306;66268
307;66270
307;66272
308;66274
308;66276
308;66278
308;66280
308;66282
307;66284
306;66286
306;66288
307;66290
307;66292
308;66294
308;66296
308;66298
308;66300
307;66302
307;66304
307;66306
306;66308
307;66310
307;66312
307;66314
308;66316
308;66318
308;66320
307;66322
307;66324
306;66326
306;66328
306;66330
307;66332
307;66334
308;66336
308;66338
307;66340
307;66342
306;66344
306;66347
306;66349
306;66351
307;66353
307;66355
308;66357
308;66359
307;66361
306;66363
306;66365
306;66367
306;66369
307;66371
307;66373
308;66375
308;66377
308;66379
307;66381
307;66383
306;66385
306;66387
307;66390
307;66392
308;66394
308;66396
308;66398
308;66400
307;66402
307;66404
306;66406
306;66408
307;66410
307;66412
308;66414
309;66416
308;66418
308;66420
307;66422
307;66424
308;66426
308;66428
309;66430
309;66432
310;66434
310;66436
311;66438
311;66440
310;66442
309;66444
309;66446
309;66448
310;66450
310;66452
310;66454
311;66456
311;66458
310;66460
310;66462
309;66464
309;66466
310;66468
309;66470
310;66472
310;66475
310;66477
310;66479
309;66481
309;66483
308;66485
308;66487
307;66489
308;66491
308;66493
309;66495
309;66497
309;66499
308;66501
307;66503
307;66505
307;66507
307;66509
307;66511
308;66513
309;66515
308;66518
308;66520
307;66522
306;66524
306;66526
305;66528
305;66530
306;66532
306;66534
306;66536
306;66538
306;66540
306;66542
307;66544
308;66546
312;66548
315;66550
321;66552
326;66554
332;66556
338;66558
340;66560
344;66562
347;66564
349;66566
351;66568
352;66570
353;66572
353;66574
353;66576
352;66578
351;66580
349;66582
347;66584
345;66586
343;66588
341;66590
340;66592
338;66594
337;66596
335;66598
333;66600
332;66603
330;66605
328;66607
327;66609
326;66611
324;66613
324;66615
322;66617
321;66619
319;66621
317;66623
316;66625
314;66627
313;66629
313;66631
312;66633
312;66635
311;66637
310;66639
309;66641
307;66643
306;66646
305;66648
305;66650
305;66652
304;66654
304;66656
303;66658
303;66660
301;66662
301;66664
300;66666
300;66668
300;66670
300;66672
300;66674
300;66676
299;66678
299;66680
299;66682
298;66684
297;66686
298;66688
297;66690
298;66692
298;66694
298;66696
299;66698
298;66700
298;66702
297;66704
296;66706
297;66708
297;66710
298;66712
298;66714
298;66716
298;66718
298;66720
297;66722
297;66724
296;66726
297;66728
297;66731
298;66733
299;66735
299;66737
299;66739
299;66741
298;66743
298;66745
298;66747
299;66749
299;66751
300;66753
301;66755
302;66757
301;66759
301;66761
301;66763
301;66765
302;66767
302;66769
303;66771
304;66774
305;66776
306;66778
306;66780
307;66782
306;66784
307;66786
307;66788
308;66790
309;66792
311;66794
313;66796
313;66798
313;66800
314;66802
314;66804
314;66806
315;66808
316;66810
318;66812
319;66814
319;66816
320;66818
320;66820
320;66822
320;66824
320;66826
320;66828
321;66830
321;66832
321;66834
322;66836
322;66838
320;66840
320;66842
318;66844
318;66846
317;66848
317;66850
317;66852
316;66854
316;66856
315;66859
314;66861
312;66863
311;66865
310;66867
309;66869
309;66871
309;66873
309;66875
308;66877
307;66879
306;66881
305;66883
304;66885
303;66887
303;66889
303;66891
303;66893
302;66895
302;66897
301;66899
300;66902
299;66904
299;66906
298;66908
298;66910
298;66912
298;66914
298;66916
298;66918
298;66920
297;66922
296;66924
296;66926
295;66928
296;66930
296;66932
296;66934
297;66936
296;66938
296;66940
295;66942
295;66944
295;66946
294;66948
295;66950
295;66952
296;66954
296;66956
296;66958
295;66960
295;66962
295;66964
294;66966
294;66968
294;66970
295;66972
295;66974
296;66976
296;66978
295;66980
295;66982
294;66984
294;66987
294;66989
295;66991
295;66993
296;66995
296;66997
296;66999
296;67001
295;67003
295;67005
295;67007
295;67009
296;67011
297;67013
297;67015
298;67017
298;67019
297;67021
297;67023
297;67025
297;67027
297;67030
298;67032
299;67034
299;67036
300;67038
300;67040
299;67042
299;67044
298;67046
299;67048
299;67050
301;67052
300;67054
301;67056
301;67058
301;67060
301;67062
300;67064
299;67066
300;67068
300;67070
301;67072
301;67074
302;67076
302;67078
303;67080
302;67082
301;67084
301;67086
301;67088
302;67090
302;67092
303;67094
303;67096
303;67098
303;67100
302;67102
303;67104
302;67106
302;67108
303;67110
303;67112
304;67115
304;67117
304;67119
304;67121
303;67123
303;67125
303;67127
303;67129
304;67131
304;67133
305;67135
305;67137
305;67139
304;67141
304;67143
304;67145
304;67147
304;67149
305;67151
305;67153
306;67155
306;67158
305;67160
305;67162
304;67164
304;67166
304;67168
304;67170
305;67172
306;67174
306;67176
306;67178
306;67180
305;67182
305;67184
304;67186
305;67188
305;67190
306;67192
306;67194
306;67196
307;67198
307;67200
306;67202
305;67204
305;67206
305;67208
305;67210
306;67212
306;67214
307;67216
307;67218
307;67220
306;67222
306;67224
305;67226
305;67228
306;67230
306;67232
307;67234
308;67236
307;67238
307;67240
306;67243
306;67245
305;67247
306;67249
306;67251
307;67253
307;67255
307;67257
307;67259
307;67261
306;67263
306;67265
306;67267
306;67269
306;67271
307;67273
308;67275
308;67277
307;67279
307;67281
306;67283
306;67286
306;67288
306;67290
307;67292
307;67294
308;67296
308;67298
307;67300
307;67302
306;67304
306;67306
306;67308
307;67310
307;67312
308;67314
308;67316
308;67318
307;67320
307;67322
306;67324
306;67326
306;67328
306;67330
307;67332
307;67334
308;67336
308;67338
308;67340
307;67342
306;67344
306;67346
306;67348
307;67350
307;67352
308;67354
308;67356
308;67358
307;67360
307;67362
306;67364
307;67366
306;67368
307;67371
307;67373
308;67375
308;67377
308;67379
308;67381
307;67383
306;67385
306;67387
306;67389
307;67391
307;67393
308;67395
308;67397
308;67399
307;67401
307;67403
306;67405
307;67407
306;67409
307;67411
308;67414
308;67416
308;67418
308;67420
307;67422
307;67424
306;67426
306;67428
307;67430
307;67432
308;67434
308;67436
308;67438
308;67440
307;67442
307;67444
307;67446
307;67448
307;67450
307;67452
308;67454
308;67456
308;67458
308;67460
308;67462
307;67464
306;67466
306;67468
307;67470
307;67472
308;67474
308;67476
308;67478
308;67480
307;67482
307;67484
307;67486
306;67488
307;67490
308;67492
308;67494
309;67496
309;67499
309;67501
308;67503
308;67505
308;67507
309;67509
309;67511
310;67513
311;67515
311;67517
311;67519
311;67521
310;67523
310;67525
310;67527
310;67529
310;67531
312;67533
311;67535
311;67537
311;67539
310;67542
310;67544
309;67546
309;67548
309;67550
309;67552
310;67554
310;67556
310;67558
309;67560
309;67562
308;67564
307;67566
308;67568
308;67570
308;67572
309;67574
309;67576
309;67578
309;67580
307;67582
307;67584
307;67586
307;67588
307;67590
307;67592
307;67594
308;67596
308;67598
307;67600
306;67602
306;67604
305;67606
304;67608
304;67610
305;67612
305;67614
306;67616
306;67618
307;67620
308;67622
310;67624
312;67627
317;67629
321;67631
328;67633
333;67635
341;67637
345;67639
348;67641
350;67643
352;67645
353;67647
354;67649
354;67651
354;67653
354;67655
353;67657
351;67659
350;67661
347;67663
345;67665
342;67667
342;67670
339;67672
338;67674
337;67676
336;67678
334;67680
332;67682
330;67684
328;67686
326;67688
325;67690
324;67692
323;67694
321;67696
320;67698
318;67700
316;67702
314;67704
313;67706
312;67708
311;67710
311;67712
310;67714
311;67716
308;67718
307;67720
306;67722
304;67724
304;67726
302;67728
302;67730
302;67732
302;67734
301;67736
301;67738
300;67740
299;67742
298;67744
297;67746
297;67748
297;67750
297;67752
298;67755
297;67757
298;67759
296;67761
295;67763
295;67765
294;67767
295;67769
295;67771
295;67773
296;67775
296;67777
296;67779
295;67781
294;67783
294;67785
294;67787
295;67789
295;67791
295;67793
296;67795
296;67798
296;67800
295;67802
295;67804
295;67806
295;67808
296;67810
296;67812
296;67814
297;67816
297;67818
297;67820
297;67822
297;67824
296;67826
296;67828
297;67830
298;67832
299;67834
299;67836
300;67838
299;67840
300;67842
299;67844
299;67846
300;67848
301;67850
301;67852
303;67854
303;67856
304;67858
304;67860
305;67862
304;67864
305;67866
306;67868
307;67870
308;67872
310;67874
311;67876
312;67878
312;67880
313;67883
314;67885
314;67887
315;67889
316;67891
317;67893
318;67895
319;67897
320;67899
319;67901
319;67903
319;67905
319;67907
319;67909
320;67911
320;67913
320;67915
320;67917
320;67919
319;67921
318;67923
317;67926
316;67928
316;67930
316;67932
315;67934
315;67936
314;67938
313;67940
312;67942
311;67944
309;67946
309;67948
308;67950
308;67952
307;67954
307;67956
306;67958
306;67960
304;67962
303;67964
302;67966
302;67968
302;67970
302;67972
302;67974
301;67976
302;67978
300;67980
299;67982
298;67984
298;67986
297;67988
297;67990
297;67992
297;67994
298;67996
297;67998
297;68000
296;68002
295;68004
295;68006
295;68008
295;68011
295;68013
297;68015
296;68017
295;68019
295;68021
294;68023
294;68025
293;68027
293;68029
294;68031
294;68033
295;68035
295;68037
295;68039
294;68041
294;68043
293;68045
293;68047
293;68049
294;68051
294;68054
294;68056
295;68058
295;68060
294;68062
293;68064
293;68066
294;68068
294;68070
294;68072
295;68074
295;68076
295;68078
295;68080
295;68082
294;68084
294;68086
295;68088
295;68090
296;68092
297;68094
297;68096
297;68098
297;68100
297;68102
297;68104
296;68106
297;68108
297;68110
298;68112
298;68114
299;68116
299;68118
299;68120
298;68122
298;68124
298;68126
298;68128
299;68130
300;68132
301;68134
301;68136
301;68139
301;68141
300;68143
300;68145
300;68147
300;68149
300;68151
302;68153
302;68155
302;68157
302;68159
302;68161
301;68163
301;68165
301;68167
302;68169
302;68171
303;68173
303;68175
304;68177
303;68179
303;68182
302;68184
302;68186
302;68188
303;68190
303;68192
304;68194
304;68196
304;68198
304;68200
303;68202
303;68204
303;68206
303;68208
303;68210
303;68212
304;68214
304;68216
304;68218
304;68220
304;68222
304;68224
303;68226
303;68228
304;68230
304;68232
305;68234
305;68236
305;68238
305;68240
304;68242
304;68244
303;68246
304;68248
304;68250
304;68252
305;68254
305;68256
306;68258
305;68260
305;68262
304;68264
305;68267
304;68269
306;68271
305;68273
306;68275
306;68277
306;68279
306;68281
305;68283
305;68285
305;68287
305;68289
305;68291
305;68293
306;68295
306;68297
306;68299
306;68301
305;68303
305;68305
305;68307
305;68310
305;68312
306;68314
306;68316
308;68318
306;68320
306;68322
305;68324
305;68326
305;68328
305;68330
306;68332
307;68334
307;68336
307;68338
307;68340
306;68342
306;68344
305;68346
305;68348
306;68350
306;68352
307;68354
307;68356
307;68358
307;68360
307;68362
306;68364
306;68366
306;68368
306;68370
307;68372
307;68374
308;68376
308;68378
307;68380
307;68382
306;68384
306;68386
306;68388
307;68390
307;68392
308;68395
309;68397
308;68399
307;68401
307;68403
306;68405
307;68407
306;68409
307;68411
307;68413
308;68415
308;68417
308;68419
307;68421
307;68423
307;68425
306;68427
306;68429
307;68431
307;68433
308;68435
308;68438
308;68440
307;68442
307;68444
306;68446
306;68448
307;68450
308;68452
308;68454
308;68456
309;68458
308;68460
307;68462
307;68464
306;68466
307;68468
307;68470
308;68472
308;68474
308;68476
308;68478
308;68480
308;68482
307;68484
307;68486
306;68488
306;68490
307;68492
308;68494
308;68496
308;68498
308;68500
307;68502
306;68504
306;68506
306;68508
307;68510
307;68512
308;68514
308;68516
309;68518
308;68520
307;68523
306;68525
306;68527
306;68529
307;68531
307;68533
308;68535
308;68537
308;68539
307;68541
307;68543
307;68545
306;68547
306;68549
307;68551
307;68553
308;68555
308;68557
308;68559
307;68561
307;68563
307;68566
306;68568
307;68570
307;68572
307;68574
308;68576
308;68578
308;68580
307;68582
306;68584
306;68586
306;68588
306;68590
307;68592
307;68594
308;68596
308;68598
308;68600
307;68602
306;68604
306;68606
307;68608
307;68610
308;68612
308;68614
309;68616
309;68618
309;68620
309;68622
308;68624
308;68626
309;68628
309;68630
310;68632
310;68634
311;68636
311;68638
311;68640
310;68642
309;68644
309;68646
309;68648
309;68651
310;68653
310;68655
310;68657
311;68659
310;68661
309;68663
308;68665
308;68667
308;68669
308;68671
309;68673
309;68675
309;68677
308;68679
308;68681
307;68683
307;68685
307;68687
307;68689
307;68691
308;68694
309;68696
308;68698
307;68700
307;68702
307;68704
306;68706
306;68708
307;68710
306;68712
307;68714
307;68716
307;68718
306;68720
305;68722
304;68724
304;68726
304;68728
304;68730
305;68732
306;68734
307;68736
310;68738
311;68740
314;68742
318;68744
322;68746
328;68748
335;68750
342;68752
346;68754
350;68756
353;68758
354;68760
355;68762
355;68764
355;68766
354;68768
354;68770
354;68772
353;68774
352;68776
350;68779
348;68781
345;68783
342;68785
340;68787
339;68789
338;68791
337;68793
336;68795
335;68797
334;68799
331;68801
329;68803
327;68805
325;68807
323;68809
322;68811
321;68813
321;68815
320;68817
318;68819
316;68822
314;68824
313;68826
311;68828
311;68830
310;68832
310;68834
310;68836
308;68838
307;68840
306;68842
304;68844
303;68846
303;68848
303;68850
302;68852
302;68854
302;68856
301;68858
301;68860
300;68862
299;68864
298;68866
298;68868
298;68870
298;68872
299;68874
299;68876
299;68878
298;68880
298;68882
297;68884
297;68886
297;68888
297;68890
298;68892
298;68894
298;68896
298;68898
298;68900
298;68902
297;68904
297;68907
297;68909
298;68911
298;68913
299;68915
299;68917
299;68919
298;68921
298;68923
298;68925
297;68927
297;68929
298;68931
298;68933
299;68935
299;68937
299;68939
298;68941
298;68943
297;68945
297;68947
298;68950
298;68952
299;68954
300;68956
300;68958
300;68960
300;68962
299;68964
299;68966
300;68968
300;68970
302;68972
302;68974
304;68976
303;68978
304;68980
304;68982
304;68984
304;68986
305;68988
306;68990
307;68992
308;68994
309;68996
310;68998
310;69000
311;69002
312;69004
312;69006
312;69008
313;69010
315;69012
316;69014
317;69016
318;69018
317;69020
317;69022
317;69024
317;69026
317;69028
317;69030
317;69032
317;69035
318;69037
317;69039
316;69041
315;69043
314;69045
314;69047
313;69049
313;69051
313;69053
312;69055
312;69057
311;69059
310;69061
308;69063
308;69065
306;69067
306;69069
306;69071
305;69073
305;69075
305;69078
304;69080
303;69082
302;69084
301;69086
300;69088
300;69090
300;69092
300;69094
300;69096
300;69098
299;69100
298;69102
297;69104
296;69106
296;69108
296;69110
296;69112
297;69114
296;69116
296;69118
296;69120
296;69122
295;69124
294;69126
294;69128
294;69130
295;69132
294;69134
295;69136
295;69138
295;69140
294;69142
294;69144
293;69146
293;69148
293;69150
294;69152
295;69154
294;69156
294;69158
294;69160
293;69163
293;69165
292;69167
292;69169
292;69171
292;69173
293;69175
294;69177
294;69179
293;69181
293;69183
292;69185
292;69187
293;69189
293;69191
294;69193
295;69195
295;69197
295;69199
295;69201
294;69203
294;69206
294;69208
295;69210
295;69212
296;69214
297;69216
297;69218
297;69220
297;69222
297;69224
296;69226
297;69228
297;69230
297;69232
298;69234
298;69236
299;69238
298;69240
298;69242
298;69244
297;69246
297;69248
298;69250
298;69252
299;69254
300;69256
300;69258
300;69260
300;69262
299;69264
299;69266
299;69268
300;69270
300;69272
301;69274
301;69276
301;69278
301;69280
300;69282
300;69284
300;69286
300;69288
301;69291
301;69293
302;69295
302;69297
302;69299
302;69301
302;69303
301;69305
302;69307
301;69309
302;69311
303;69313
303;69315
304;69317
304;69319
303;69321
303;69323
303;69325
303;69327
303;69329
304;69331
304;69334
304;69336
304;69338
304;69340
304;69342
304;69344
303;69346
303;69348
304;69350
304;69352
304;69354
305;69356
305;69358
305;69360
304;69362
304;69364
303;69366
304;69368
304;69370
305;69372
305;69374
305;69376
305;69378
305;69380
305;69382
304;69384
304;69386
304;69388
304;69390
305;69392
305;69394
306;69396
306;69398
306;69400
306;69402
305;69404
305;69406
304;69408
306;69410
306;69412
306;69414
307;69416
307;69419
306;69421
306;69423
305;69425
305;69427
305;69429
306;69431
306;69433
307;69435
307;69437
307;69439
307;69441
307;69443
306;69445
306;69447
306;69449
306;69451
307;69453
307;69455
309;69457
308;69459
307;69462
307;69464
306;69466
306;69468
307;69470
307;69472
307;69474
308;69476
308;69478
308;69480
307;69482
307;69484
306;69486
306;69488
307;69490
307;69492
309;69494
308;69496
308;69498
308;69500
307;69502
307;69504
307;69506
307;69508
307;69510
307;69512
308;69514
309;69516
308;69518
308;69520
307;69522
307;69524
306;69526
306;69528
306;69530
308;69532
307;69534
308;69536
308;69538
308;69540
307;69542
306;69544
306;69547
306;69549
307;69551
307;69553
308;69555
309;69557
309;69559
308;69561
308;69563
307;69565
307;69567
307;69569
308;69571
308;69573
309;69575
310;69577
310;69579
309;69581
309;69583
308;69585
308;69587
308;69590
309;69592
310;69594
310;69596
311;69598
310;69600
310;69602
309;69604
309;69606
309;69608
310;69610
310;69612
311;69614
311;69616
311;69618
311;69620
311;69622
310;69624
310;69626
310;69628
310;69630
310;69632
311;69634
312;69636
312;69638
312;69640
311;69642
310;69644
310;69646
309;69648
310;69650
310;69652
311;69654
312;69656
312;69658
311;69660
311;69662
310;69664
309;69666
309;69668
310;69670
311;69672
311;69675
312;69677
311;69679
311;69681
310;69683
309;69685
309;69687
309;69689
309;69691
310;69693
311;69695
311;69697
311;69699
311;69701
310;69703
310;69705
310;69707
311;69709
311;69711
312;69713
312;69715
313;69718
313;69720
312;69722
312;69724
311;69726
311;69728
311;69730
311;69732
312;69734
312;69736
312;69738
312;69740
311;69742
310;69744
310;69746
310;69748
310;69750
310;69752
311;69754
311;69756
310;69758
310;69760
310;69762
308;69764
308;69766
307;69768
308;69770
308;69772
309;69774
309;69776
309;69778
308;69780
307;69782
306;69784
305;69786
306;69788
306;69790
305;69792
307;69794
307;69796
307;69798
305;69800
305;69803
303;69805
303;69807
302;69809
302;69811
303;69813
303;69815
303;69817
303;69819
303;69821
304;69823
306;69825
309;69827
313;69829
318;69831
324;69833
332;69835
337;69837
342;69839
346;69841
348;69843
350;69846
351;69848
353;69850
353;69852
354;69854
354;69856
353;69858
352;69860
350;69862
347;69864
345;69866
343;69868
341;69870
340;69872
339;69874
338;69876
337;69878
334;69880
332;69882
330;69884
328;69886
327;69888
326;69890
325;69892
324;69894
323;69896
321;69898
319;69900
317;69902
315;69904
314;69906
312;69908
311;69910
310;69912
310;69914
309;69916
308;69918
307;69920
305;69922
304;69924
302;69926
302;69928
302;69931
301;69933
301;69935
301;69937
301;69939
299;69941
298;69943
297;69945
296;69947
295;69949
296;69951
296;69953
296;69955
297;69957
296;69959
295;69961
294;69963
293;69965
293;69967
293;69969
294;69971
294;69974
295;69976
294;69978
294;69980
294;69982
293;69984
292;69986
292;69988
292;69990
293;69992
293;69994
294;69996
294;69998
294;70000
293;70002
293;70004
292;70006
293;70008
293;70010
294;70012
294;70014
295;70016
295;70018
295;70020
294;70022
294;70024
293;70026
293;70028
294;70030
295;70032
296;70034
296;70036
297;70038
297;70040
296;70042
296;70044
296;70046
297;70048
298;70050
299;70052
300;70054
301;70056
302;70059
302;70061
302;70063
303;70065
302;70067
304;70069
305;70071
306;70073
308;70075
309;70077
310;70079
310;70081
310;70083
311;70085
311;70087
312;70089
314;70091
315;70093
316;70095
317;70097
318;70099
318;70102
317;70104
317;70106
317;70108
317;70110
318;70112
319;70114
319;70116
319;70118
318;70120
318;70122
316;70124
315;70126
314;70128
314;70130
314;70132
315;70134
314;70136
314;70138
312;70140
311;70142
311;70144
309;70146
308;70148
308;70150
308;70152
307;70154
307;70156
307;70158
306;70160
304;70162
303;70164
302;70166
302;70168
301;70170
301;70172
302;70174
302;70176
301;70178
301;70180
299;70182
298;70184
297;70187
297;70189
297;70191
297;70193
298;70195
298;70197
298;70199
297;70201
296;70203
295;70205
295;70207
295;70209
295;70211
296;70213
296;70215
297;70217
296;70219
296;70221
295;70223
294;70225
295;70227
294;70230
295;70232
295;70234
296;70236
296;70238
296;70240
295;70242
295;70244
295;70246
294;70248
295;70250
295;70252
296;70254
296;70256
297;70258
296;70260
296;70262
296;70264
294;70266
295;70268
295;70270
295;70272
297;70274
297;70276
297;70278
297;70280
297;70282
296;70284
296;70286
296;70288
296;70290
297;70292
298;70294
298;70296
299;70298
298;70300
298;70302
297;70304
298;70306
297;70308
297;70310
298;70312
299;70315
299;70317
300;70319
299;70321
299;70323
298;70325
298;70327
298;70329
299;70331
299;70333
301;70335
301;70337
301;70339
300;70341
300;70343
299;70345
299;70347
300;70349
300;70351
301;70353
302;70355
302;70358
302;70360
301;70362
300;70364
300;70366
300;70368
301;70370
301;70372
302;70374
303;70376
303;70378
303;70380
302;70382
301;70384
301;70386
301;70388
301;70390
302;70392
303;70394
304;70396
304;70398
304;70400
303;70402
302;70404
302;70406
301;70408
303;70410
302;70412
303;70414
304;70416
304;70418
304;70420
303;70422
302;70424
302;70426
302;70428
303;70430
303;70432
304;70434
305;70436
305;70438
304;70440
304;70443
303;70445
303;70447
303;70449
303;70451
304;70453
304;70455
305;70457
305;70459
304;70461
303;70463
303;70465
303;70467
303;70469
303;70471
304;70473
304;70475
304;70477
304;70479
304;70481
303;70483
303;70486
302;70488
303;70490
303;70492
305;70494
304;70496
305;70498
305;70500
304;70502
303;70504
302;70506
303;70508
303;70510
303;70512
304;70514
305;70516
304;70518
304;70520
304;70522
303;70524
303;70526
303;70528
303;70530
304;70532
304;70534
305;70536
305;70538
305;70540
304;70542
304;70544
303;70546
303;70548
304;70550
305;70552
305;70554
306;70556
306;70558
305;70560
305;70562
304;70564
304;70566
304;70568
304;70571
306;70573
306;70575
306;70577
306;70579
306;70581
305;70583
305;70585
304;70587
304;70589
305;70591
305;70593
306;70595
306;70597
306;70599
306;70601
305;70603
304;70605
304;70607
304;70609
305;70611
305;70614
306;70616
306;70618
306;70620
305;70622
304;70624
304;70626
304;70628
304;70630
304;70632
305;70634
305;70636
305;70638
305;70640
304;70642
304;70644
303;70646
303;70648
304;70650
305;70652
305;70654
305;70656
305;70658
305;70660
305;70662
304;70664
303;70666
303;70668
304;70670
304;70672
305;70674
306;70676
306;70678
306;70680
305;70682
304;70684
304;70686
304;70688
305;70690
305;70692
306;70694
307;70696
307;70699
306;70701
306;70703
306;70705
305;70707
306;70709
306;70711
307;70713
307;70715
308;70717
308;70719
307;70721
307;70723
306;70725
306;70727
306;70729
307;70731
308;70733
308;70735
309;70737
309;70739
309;70742
309;70744
308;70746
308;70748
309;70750
310;70752
311;70754
312;70756
312;70758
312;70760
311;70762
310;70764
310;70766
310;70768
311;70770
311;70772
312;70774
311;70776
311;70778
311;70780
310;70782
309;70784
309;70786
308;70788
309;70790
309;70792
310;70794
310;70796
310;70798
309;70800
309;70802
308;70804
307;70806
307;70808
308;70810
308;70812
309;70814
310;70816
309;70818
309;70820
308;70822
308;70824
307;70827
307;70829
308;70831
308;70833
309;70835
309;70837
308;70839
308;70841
307;70843
305;70845
305;70847
306;70849
306;70851
307;70853
308;70855
310;70857
312;70859
313;70861
317;70863
320;70865
326;70867
332;70870
339;70872
345;70874
349;70876
352;70878
354;70880
355;70882
355;70884
356;70886
355;70888
354;70890
355;70892
354;70894
354;70896
351;70898
350;70900
346;70902
344;70904
341;70906
340;70908
339;70910
338;70912
337;70914
336;70916
335;70918
333;70920
331;70922
329;70924
326;70926
325;70928
324;70930
323;70932
322;70934
321;70936
320;70938
318;70940
317;70942
314;70944
313;70946
312;70948
311;70950
311;70952
310;70955
310;70957
309;70959
308;70961
306;70963
304;70965
303;70967
303;70969
302;70971
302;70973
302;70975
302;70977
302;70979
301;70981
300;70983
299;70985
298;70987
298;70989
298;70991
298;70993
298;70995
299;70998
298;71000
298;71002
297;71004
296;71006
296;71008
296;71010
296;71012
297;71014
297;71016
297;71018
297;71020
296;71022
296;71024
296;71026
295;71028
296;71030
296;71032
297;71034
297;71036
297;71038
297;71040
297;71042
296;71044
296;71046
295;71048
296;71050
297;71052
297;71054
298;71056
298;71058
299;71060
298;71062
298;71064
297;71066
297;71068
298;71070
299;71072
300;71074
301;71076
301;71078
301;71080
301;71083
301;71085
301;71087
301;71089
302;71091
303;71093
304;71095
305;71097
306;71099
306;71101
306;71103
306;71105
307;71107
307;71109
309;71111
310;71113
312;71115
312;71117
313;71119
313;71121
313;71123
313;71126
314;71128
315;71130
315;71132
317;71134
317;71136
318;71138
318;71140
317;71142
317;71144
316;71146
316;71148
316;71150
316;71152
317;71154
317;71156
316;71158
315;71160
314;71162
312;71164
311;71166
311;71168
311;71170
310;71172
310;71174
310;71176
309;71178
308;71180
307;71182
306;71184
304;71186
304;71188
303;71190
303;71192
303;71194
303;71196
302;71198
302;71200
300;71202
299;71204
298;71206
297;71208
298;71211
298;71213
298;71215
298;71217
298;71219
297;71221
296;71223
295;71225
294;71227
294;71229
295;71231
295;71233
295;71235
296;71237
295;71239
294;71241
294;71243
293;71245
293;71247
293;71249
293;71251
294;71254
294;71256
295;71258
294;71260
293;71262
293;71264
292;71266
292;71268
292;71270
293;71272
294;71274
295;71276
294;71278
295;71280
294;71282
293;71284
292;71286
293;71288
293;71290
294;71292
295;71294
295;71296
295;71298
295;71300
294;71302
294;71304
294;71306
293;71308
294;71310
295;71312
295;71314
296;71316
297;71318
296;71320
297;71322
295;71324
295;71326
295;71328
295;71330
297;71332
297;71334
298;71336
298;71339
297;71341
297;71343
296;71345
296;71347
296;71349
297;71351
298;71353
299;71355
299;71357
299;71359
299;71361
298;71363
298;71365
298;71367
298;71369
299;71371
300;71373
300;71375
301;71377
300;71379
300;71382
300;71384
299;71386
299;71388
299;71390
300;71392
301;71394
302;71396
302;71398
301;71400
301;71402
301;71404
300;71406
300;71408
301;71410
302;71412
303;71414
303;71416
303;71418
303;71420
303;71422
302;71424
302;71426
302;71428
302;71430
303;71432
303;71434
304;71436
304;71438
305;71440
304;71442
303;71444
302;71446
303;71448
303;71450
304;71452
304;71454
305;71456
305;71458
304;71460
304;71462
303;71464
303;71467
303;71469
303;71471
305;71473
305;71475
306;71477
305;71479
305;71481
304;71483
304;71485
303;71487
304;71489
304;71491
305;71493
306;71495
306;71497
306;71499
305;71501
304;71503
304;71505
304;71507
304;71510
304;71512
305;71514
306;71516
307;71518
306;71520
306;71522
305;71524
304;71526
304;71528
305;71530
305;71532
306;71534
307;71536
307;71538
306;71540
306;71542
305;71544
305;71546
305;71548
305;71550
306;71552
306;71554
307;71556
307;71558
307;71560
306;71562
306;71564
305;71566
305;71568
305;71570
306;71572
307;71574
307;71576
308;71578
307;71580
306;71582
306;71584
306;71586
306;71588
306;71590
307;71592
307;71595
308;71597
309;71599
307;71601
307;71603
306;71605
306;71607
306;71609
306;71611
307;71613
307;71615
308;71617
308;71619
307;71621
307;71623
306;71625
306;71627
306;71629
306;71631
307;71633
308;71635
308;71638
308;71640
308;71642
307;71644
306;71646
306;71648
306;71650
307;71652
308;71654
308;71656
309;71658
309;71660
308;71662
307;71664
307;71666
307;71668
307;71670
308;71672
308;71674
309;71676
309;71678
308;71680
308;71682
308;71684
307;71686
307;71688
307;71690
307;71692
308;71694
309;71696
309;71698
309;71700
308;71702
307;71704
307;71706
307;71708
307;71710
308;71712
309;71714
309;71716
309;71718
309;71720
308;71723
308;71725
307;71727
307;71729
307;71731
308;71733
309;71735
309;71737
310;71739
309;71741
309;71743
308;71745
309;71747
309;71749
310;71751
311;71753
311;71755
312;71757
312;71759
311;71761
311;71763
310;71766
310;71768
310;71770
310;71772
311;71774
311;71776
311;71778
311;71780
311;71782
310;71784
309;71786
309;71788
309;71790
309;71792
310;71794
311;71796
310;71798
310;71800
309;71802
308;71804
307;71806
307;71808
307;71810
308;71812
308;71814
309;71816
309;71818
309;71820
308;71822
307;71824
306;71826
307;71828
306;71830
307;71832
308;71834
308;71836
309;71838
307;71840
307;71842
305;71844
304;71846
304;71848
304;71851
305;71853
306;71855
306;71857
307;71859
307;71861
308;71863
310;71865
313;71867
317;71869
323;71871
328;71873
335;71875
341;71877
344;71879
347;71881
348;71883
349;71885
349;71887
349;71889
349;71891
349;71894
348;71896
348;71898
346;71900
344;71902
341;71904
338;71906
336;71908
335;71910
334;71912
332;71914
332;71916
330;71918
329;71920
327;71922
324;71924
323;71926
321;71928
320;71930
319;71932
319;71934
318;71936
317;71938
316;71940
314;71942
312;71944
311;71946
310;71948
308;71950
308;71952
308;71954
308;71956
307;71958
306;71960
304;71962
303;71964
302;71966
302;71968
301;71970
301;71972
301;71974
301;71976
301;71979
300;71981
299;71983
298;71985
297;71987
297;71989
297;71991
298;71993
298;71995
299;71997
298;71999
297;72001
297;72003
296;72005
295;72007
296;72009
296;72011
297;72013
298;72015
298;72017
298;72019
297;72022
297;72024
296;72026
296;72028
296;72030
297;72032
298;72034
298;72036
298;72038
298;72040
298;72042
297;72044
297;72046
297;72048
298;72050
299;72052
299;72054
300;72056
300;72058
300;72060
300;72062
299;72064
299;72066
299;72068
299;72070
301;72072
301;72074
303;72076
303;72078
303;72080
303;72082
303;72084
303;72086
303;72088
304;72090
305;72092
306;72094
308;72096
309;72098
309;72100
309;72102
309;72104
309;72107
310;72109
311;72111
313;72113
315;72115
316;72117
317;72119
317;72121
317;72123
318;72125
318;72127
319;72129
321;72131
322;72133
323;72135
324;72137
324;72139
325;72141
324;72143
323;72145
323;72147
323;72150
323;72152
324;72154
325;72156
324;72158
324;72160
323;72162
321;72164
320;72166
320;72168
319;72170
319;72172
319;72174
319;72176
318;72178
317;72180
315;72182
314;72184
312;72186
312;72188
311;72190
311;72192
311;72194
311;72196
311;72198
310;72200
309;72202
307;72204
306;72206
305;72208
305;72210
305;72212
305;72214
305;72216
305;72218
304;72220
303;72222
302;72224
301;72226
300;72228
301;72230
301;72232
301;72235
301;72237
301;72239
301;72241
300;72243
298;72245
298;72247
298;72249
298;72251
298;72253
299;72255
300;72257
299;72259
298;72261
298;72263
297;72265
297;72267
296;72269
298;72271
297;72273
298;72275
298;72278
298;72280
297;72282
297;72284
296;72286
296;72288
296;72290
297;72292
297;72294
298;72296
298;72298
299;72300
297;72302
296;72304
296;72306
296;72308
296;72310
297;72312
298;72314
298;72316
299;72318
298;72320
298;72322
298;72324
296;72326
296;72328
296;72330
297;72332
298;72334
298;72336
299;72338
299;72340
299;72342
298;72344
298;72346
297;72348
298;72350
298;72352
299;72354
300;72356
300;72358
300;72360
299;72363
299;72365
298;72367
298;72369
299;72371
299;72373
300;72375
301;72377
301;72379
301;72381
300;72383
299;72385
299;72387
299;72389
300;72391
300;72393
301;72395
302;72397
301;72399
301;72401
301;72403
300;72406
300;72408
300;72410
301;72412
302;72414
302;72416
303;72418
303;72420
302;72422
301;72424
301;72426
301;72428
301;72430
302;72432
302;72434
303;72436
304;72438
303;72440
302;72442
302;72444
301;72446
302;72448
303;72450
303;72452
304;72454
304;72456
304;72458
305;72460
303;72462
303;72464
303;72466
303;72468
302;72470
303;72472
304;72474
305;72476
305;72478
305;72480
304;72482
304;72484
303;72486
303;72488
304;72491
304;72493
305;72495
306;72497
305;72499
305;72501
305;72503
304;72505
303;72507
304;72509
304;72511
305;72513
306;72515
306;72517
306;72519
305;72521
303;72523
304;72525
305;72527
304;72529
306;72531
306;72534
306;72536
305;72538
307;72540
305;72542
305;72544
304;72546
304;72548
304;72550
305;72552
305;72554
306;72556
306;72558
306;72560
306;72562
305;72564
305;72566
304;72568
305;72570
305;72572
306;72574
306;72576
306;72578
306;72580
306;72582
305;72584
305;72586
304;72588
305;72590
305;72592
306;72594
306;72596
307;72598
307;72600
306;72602
305;72604
305;72606
305;72608
305;72610
300;72612
299;72614
296;72616
297;72619
292;72621
287;72623
285;72625
286;72627
282;72629
287;72631
288;72633
289;72635
290;72637
290;72639
290;72641
290;72643
289;72645
289;72647
290;72649
291;72651
292;72653
293;72655
293;72657
294;72659
294;72662
294;72664
293;72666
293;72668
294;72670
295;72672
296;72674
296;72676
297;72678
297;72680
296;72682
296;72684
296;72686
296;72688
297;72690
297;72692
298;72694
299;72696
299;72698
299;72700
299;72702
299;72704
299;72706
298;72708
299;72710
299;72712
300;72714
301;72716
301;72718
301;72720
301;72722
300;72724
300;72726
300;72728
300;72730
301;72732
302;72734
303;72736
303;72738
303;72740
302;72742
302;72744
301;72747
301;72749
302;72751
303;72753
303;72755
304;72757
304;72759
303;72761
303;72763
302;72765
302;72767
302;72769
303;72771
303;72773
304;72775
304;72777
305;72779
304;72781
304;72783
303;72785
303;72787
303;72790
303;72792
304;72794
305;72796
305;72798
306;72800
305;72802
305;72804
305;72806
305;72808
305;72810
306;72812
307;72814
308;72816
308;72818
308;72820
307;72822
307;72824
306;72826
306;72828
306;72830
307;72832
307;72834
308;72836
308;72838
308;72840
307;72842
306;72844
306;72846
305;72848
305;72850
306;72852
306;72854
307;72856
307;72858
306;72860
306;72862
305;72864
304;72866
304;72868
304;72870
305;72872
306;72875
306;72877
306;72879
306;72881
305;72883
304;72885
304;72887
304;72889
304;72891
304;72893
305;72895
305;72897
305;72899
305;72901
303;72903
302;72905
302;72907
302;72909
302;72911
303;72913
304;72915
304;72918
305;72920
306;72922
308;72924
311;72926
314;72928
320;72930
325;72932
332;72934
339;72936
344;72938
347;72940
349;72942
350;72944
351;72946
351;72948
352;72950
352;72952
352;72954
351;72956
351;72958
349;72960
347;72962
345;72964
342;72966
340;72968
338;72970
336;72972
335;72974
335;72976
334;72978
332;72980
330;72982
328;72984
325;72986
324;72988
323;72990
321;72992
321;72994
320;72996
318;72998
317;73000
315;73003
313;73005
311;73007
310;73009
309;73011
309;73013
309;73015
308;73017
307;73019
306;73021
304;73023
303;73025
302;73027
301;73029
301;73031
301;73033
301;73035
301;73037
301;73039
299;73041
298;73043
297;73046
296;73048
296;73050
297;73052
297;73054
297;73056
297;73058
297;73060
296;73062
295;73064
295;73066
295;73068
295;73070
295;73072
296;73074
296;73076
296;73078
296;73080
295;73082
295;73084
294;73086
294;73088
295;73090
295;73092
296;73094
296;73096
297;73098
296;73100
296;73102
295;73104
295;73106
294;73108
295;73110
296;73112
296;73114
297;73116
298;73118
297;73120
297;73122
296;73124
296;73126
296;73128
297;73131
297;73133
299;73135
299;73137
300;73139
300;73141
299;73143
299;73145
299;73147
300;73149
301;73151
302;73153
304;73155
304;73157
305;73159
305;73161
305;73163
305;73165
305;73167
307;73169
307;73171
309;73174
311;73176
311;73178
313;73180
313;73182
313;73184
313;73186
314;73188
315;73190
316;73192
317;73194
319;73196
319;73198
320;73200
319;73202
319;73204
318;73206
319;73208
319;73210
319;73212
320;73214
320;73216
320;73218
320;73220
319;73222
318;73224
317;73226
316;73228
316;73230
315;73232
315;73234
315;73236
315;73238
313;73240
312;73242
310;73244
309;73246
308;73248
308;73250
308;73252
308;73254
307;73256
307;73259
306;73261
305;73263
303;73265
302;73267
301;73269
301;73271
301;73273
301;73275
301;73277
301;73279
300;73281
299;73283
298;73285
297;73287
295;73289
297;73291
299;73293
299;73295
299;73297
297;73299
297;73302
295;73304
296;73306
295;73308
295;73310
295;73312
295;73314
296;73316
296;73318
295;73320
295;73322
294;73324
293;73326
293;73328
293;73330
294;73332
294;73334
295;73336
295;73338
294;73340
294;73342
293;73344
292;73346
292;73348
292;73350
293;73352
294;73354
295;73356
295;73358
295;73360
294;73362
293;73364
293;73366
293;73368
293;73370
295;73372
295;73374
295;73376
297;73378
296;73380
294;73382
294;73384
294;73387
294;73389
295;73391
295;73393
296;73395
297;73397
297;73399
297;73401
296;73403
296;73405
295;73407
296;73409
296;73411
297;73413
298;73415
299;73417
299;73419
299;73421
298;73423
298;73425
297;73427
298;73430
298;73432
299;73434
299;73436
300;73438
300;73440
300;73442
299;73444
299;73446
298;73448
299;73450
300;73452
301;73454
301;73456
302;73458
302;73460
301;73462
300;73464
301;73466
300;73468
301;73470
301;73472
302;73474
302;73476
303;73478
302;73480
302;73482
301;73484
301;73486
301;73488
301;73490
302;73492
303;73494
303;73496
303;73498
304;73500
303;73502
302;73504
302;73506
301;73508
303;73510
303;73512
304;73515
304;73517
304;73519
304;73521
304;73523
303;73525
302;73527
302;73529
303;73531
304;73533
304;73535
305;73537
305;73539
304;73541
304;73543
303;73545
303;73547
303;73549
303;73551
304;73553
305;73555
306;73558
305;73560
305;73562
304;73564
303;73566
303;73568
303;73570
304;73572
305;73574
305;73576
305;73578
305;73580
304;73582
304;73584
303;73586
304;73588
305;73590
305;73592
306;73594
305;73596
306;73598
307;73600
306;73602
305;73604
304;73606
304;73608
304;73610
305;73612
307;73614
306;73616
307;73618
306;73620
306;73622
305;73624
305;73626
304;73628
305;73630
306;73632
306;73634
307;73636
307;73638
307;73640
306;73643
305;73645
305;73647
305;73649
306;73651
306;73653
307;73655
307;73657
307;73659
307;73661
306;73663
306;73665
305;73667
305;73669
306;73671
307;73673
307;73675
308;73677
307;73679
307;73681
278;73683
304;73686
303;73688
294;73690
295;73692
291;73694
300;73696
283;73698
295;73700
294;73702
293;73704
293;73706
293;73708
293;73710
293;73712
296;73714
295;73716
292;73718
294;73720
295;73722
297;73724
294;73726
295;73728
293;73730
292;73732
296;73734
296;73736
297;73738
297;73740
296;73742
296;73744
295;73746
295;73748
296;73750
297;73752
298;73754
298;73756
298;73758
298;73760
298;73762
298;73764
296;73766
297;73768
297;73771
299;73773
299;73775
299;73777
302;73779
299;73781
299;73783
298;73785
298;73787
298;73789
298;73791
299;73793
300;73795
301;73797
301;73799
301;73801
300;73803
300;73805
299;73807
299;73809
300;73811
301;73814
302;73816
302;73818
303;73820
302;73822
302;73824
301;73826
301;73828
301;73830
302;73832
303;73834
303;73836
304;73838
303;73840
303;73842
302;73844
301;73846
302;73848
303;73850
304;73852
305;73854
306;73856
306;73858
307;73860
306;73862
306;73864
306;73866
306;73868
306;73870
307;73872
308;73874
308;73876
311;73878
309;73880
307;73882
306;73884
307;73886
306;73888
306;73890
308;73892
308;73894
309;73896
308;73899
308;73901
307;73903
307;73905
306;73907
306;73909
305;73911
306;73913
307;73915
307;73917
307;73919
307;73921
306;73923
305;73925
304;73927
304;73929
305;73931
306;73933
306;73935
306;73937
307;73939
306;73942
305;73944
304;73946
304;73948
305;73950
304;73952
305;73954
305;73956
305;73958
305;73960
304;73962
303;73964
302;73966
301;73968
302;73970
305;73972
306;73974
309;73976
312;73978
316;73980
320;73982
322;73984
327;73986
333;73988
339;73990
344;73992
348;73994
351;73996
353;73998
354;74000
353;74002
353;74004
353;74006
352;74008
351;74010
350;74012
349;74014
348;74016
345;74018
344;74020
341;74022
339;74024
336;74027
334;74029
334;74031
333;74033
332;74035
331;74037
329;74039
327;74041
325;74043
322;74045
321;74047
319;74049
318;74051
317;74053
316;74055
316;74057
315;74059
313;74061
311;74063
309;74065
308;74067
307;74070
306;74072
306;74074
306;74076
305;74078
304;74080
303;74082
302;74084
300;74086
299;74088
299;74090
299;74092
299;74094
299;74096
299;74098
299;74100
297;74102
297;74104
295;74106
295;74108
295;74110
295;74112
295;74114
296;74116
296;74118
296;74120
295;74122
294;74124
294;74126
293;74128
293;74130
294;74132
294;74134
295;74136
295;74138
295;74140
295;74142
293;74144
294;74146
293;74148
293;74150
293;74152
295;74155
296;74157
295;74159
295;74161
295;74163
294;74165
294;74167
293;74169
294;74171
295;74173
295;74175
296;74177
297;74179
296;74181
295;74183
295;74185
295;74187
296;74189
296;74191
298;74193
299;74195
299;74198
299;74200
299;74202
300;74204
299;74206
299;74208
300;74210
302;74212
302;74214
304;74216
305;74218
306;74220
305;74222
306;74224
305;74226
307;74228
308;74230
309;74232
311;74234
313;74236
313;74238
313;74240
315;74242
317;74244
314;74246
318;74248
317;74250
318;74252
319;74254
319;74256
323;74258
320;74260
319;74262
318;74264
318;74266
317;74268
317;74270
317;74272
318;74274
318;74276
318;74278
317;74280
316;74283
314;74285
313;74287
312;74289
312;74291
311;74293
312;74295
312;74297
311;74299
309;74301
308;74303
307;74305
306;74307
305;74309
305;74311
305;74313
305;74315
304;74317
304;74319
303;74321
302;74323
300;74326
299;74328
299;74330
299;74332
299;74334
299;74336
300;74338
298;74340
298;74342
297;74344
296;74346
295;74348
295;74350
295;74352
296;74354
296;74356
296;74358
295;74360
295;74362
294;74364
293;74366
293;74368
293;74370
294;74372
294;74374
294;74376
295;74378
294;74380
294;74382
293;74384
293;74386
292;74388
292;74390
292;74392
293;74394
294;74396
294;74398
294;74400
294;74402
293;74404
292;74406
293;74408
293;74411
293;74413
294;74415
295;74417
295;74419
295;74421
295;74423
294;74425
293;74427
293;74429
295;74431
295;74433
295;74435
295;74437
295;74439
296;74441
295;74443
294;74445
296;74447
295;74449
295;74451
296;74454
297;74456
297;74458
297;74460
297;74462
296;74464
296;74466
297;74468
299;74470
298;74472
298;74474
299;74476
299;74478
299;74480
299;74482
298;74484
298;74486
298;74488
298;74490
298;74492
299;74494
300;74496
301;74498
300;74500
301;74502
300;74504
299;74506
299;74508
299;74510
300;74512
301;74514
302;74516
302;74518
302;74520
301;74522
301;74524
300;74526
300;74528
300;74530
301;74532
302;74534
303;74536
302;74539
303;74541
302;74543
301;74545
301;74547
301;74549
301;74551
302;74553
303;74555
303;74557
304;74559
303;74561
303;74563
302;74565
302;74567
302;74569
302;74571
303;74573
304;74575
307;74577
303;74579
304;74582
301;74584
301;74586
299;74588
301;74590
302;74592
298;74594
301;74596
302;74598
302;74600
302;74602
301;74604
301;74606
300;74608
301;74610
301;74612
302;74614
303;74616
303;74618
303;74620
302;74622
302;74624
302;74626
301;74628
301;74630
302;74632
303;74634
303;74636
303;74638
303;74640
303;74642
303;74644
302;74646
302;74648
302;74650
303;74652
304;74654
304;74656
305;74658
304;74660
304;74662
303;74664
303;74667
303;74669
303;74671
303;74673
304;74675
306;74677
305;74679
305;74681
304;74683
304;74685
303;74687
303;74689
303;74691
304;74693
305;74695
306;74697
306;74699
305;74701
305;74703
304;74705
304;74707
304;74710
304;74712
305;74714
305;74716
306;74718
306;74720
305;74722
305;74724
304;74726
304;74728
304;74730
305;74732
306;74734
307;74736
306;74738
306;74740
306;74742
305;74744
304;74746
304;74748
304;74750
305;74752
305;74754
307;74756
307;74758
307;74760
306;74762
306;74764
305;74766
305;74768
305;74770
305;74772
306;74774
306;74776
307;74778
307;74780
306;74782
306;74784
305;74786
306;74788
305;74790
305;74792
306;74795
307;74797
307;74799
307;74801
307;74803
306;74805
305;74807
305;74809
305;74811
306;74813
306;74815
307;74817
307;74819
307;74821
306;74823
305;74825
305;74827
305;74829
304;74831
306;74833
307;74835
307;74838
307;74840
307;74842
306;74844
306;74846
305;74848
306;74850
307;74852
307;74854
305;74856
308;74858
306;74860
307;74862
308;74864
306;74866
306;74868
307;74870
306;74872
307;74874
308;74876
308;74878
308;74880
308;74882
307;74884
306;74886
306;74888
306;74890
306;74892
307;74894
308;74896
308;74898
308;74900
307;74902
306;74904
306;74906
306;74908
306;74910
306;74912
307;74914
308;74916
308;74918
307;74920
307;74923
306;74925
305;74927
306;74929
306;74931
306;74933
307;74935
307;74937
307;74939
307;74941
306;74943
306;74945
306;74947
306;74949
307;74951
307;74953
308;74955
309;74957
310;74959
310;74961
309;74963
309;74966
308;74968
308;74970
309;74972
310;74974
310;74976
311;74978
311;74980
310;74982
309;74984
308;74986
308;74988
309;74990
308;74992
308;74994
309;74996
310;74998
309;75000
310;75002
308;75004
307;75006
307;75008
307;75010
307;75012
308;75014
308;75016
309;75018
309;75020
308;75022
307;75024
306;75026
306;75028
306;75030
306;75032
307;75034
308;75036
308;75038
308;75040
307;75042
306;75044
305;75046
305;75048
306;75051
305;75053
306;75055
306;75057
306;75059
305;75061
305;75063
304;75065
304;75067
304;75069
305;75071
307;75073
310;75075
313;75077
318;75079
321;75081
326;75083
331;75085
338;75087
342;75089
347;75091
350;75094
353;75096
355;75098
356;75100
355;75102
354;75104
353;75106
353;75108
351;75110
350;75112
349;75114
348;75116
346;75118
344;75120
341;75122
339;75124
337;75126
336;75128
334;75130
333;75132
332;75134
331;75136
330;75138
328;75140
326;75142
324;75144
321;75146
320;75148
319;75150
317;75152
317;75154
316;75156
315;75158
314;75160
312;75162
310;75164
309;75166
307;75168
307;75170
306;75172
306;75174
306;75176
305;75179
304;75181
303;75183
302;75185
300;75187
299;75189
299;75191
299;75193
300;75195
300;75197
299;75199
298;75201
297;75203
296;75205
295;75207
295;75209
295;75211
295;75213
296;75215
296;75217
296;75219
295;75222
295;75224
294;75226
294;75228
293;75230
294;75232
294;75234
295;75236
295;75238
295;75240
295;75242
294;75244
294;75246
293;75248
293;75250
294;75252
295;75254
295;75256
295;75258
295;75260
295;75262
295;75264
294;75266
294;75268
294;75270
295;75272
296;75274
296;75276
296;75278
297;75280
296;75282
297;75284
295;75286
296;75288
296;75290
297;75292
298;75294
299;75296
300;75298
300;75300
300;75302
299;75304
299;75307
300;75309
300;75311
302;75313
303;75315
305;75317
305;75319
307;75321
306;75323
306;75325
306;75327
307;75329
308;75331
310;75333
312;75335
313;75337
314;75339
315;75341
315;75343
315;75345
315;75347
316;75350
317;75352
318;75354
319;75356
321;75358
320;75360
320;75362
319;75364
319;75366
319;75368
319;75370
319;75372
319;75374
319;75376
319;75378
318;75380
318;75382
316;75384
315;75386
313;75388
313;75390
313;75392
313;75394
312;75396
312;75398
312;75400
310;75402
309;75404
307;75406
306;75408
306;75410
306;75412
306;75414
306;75416
305;75418
305;75420
303;75422
302;75424
301;75426
300;75428
300;75430
300;75432
301;75435
300;75437
300;75439
300;75441
298;75443
298;75445
297;75447
296;75449
296;75451
297;75453
297;75455
297;75457
297;75459
297;75461
296;75463
295;75465
294;75467
294;75469
295;75471
295;75473
296;75475
296;75478
296;75480
295;75482
294;75484
294;75486
294;75488
293;75490
294;75492
295;75494
295;75496
295;75498
295;75500
295;75502
295;75504
293;75506
294;75508
294;75510
294;75512
295;75514
295;75516
296;75518
296;75520
295;75522
294;75524
294;75526
294;75528
294;75530
294;75532
295;75534
296;75536
296;75538
296;75540
296;75542
295;75544
295;75546
295;75548
296;75550
296;75552
297;75554
297;75556
298;75558
298;75560
298;75563
297;75565
296;75567
296;75569
296;75571
297;75573
299;75575
299;75577
299;75579
299;75581
299;75583
298;75585
298;75587
298;75589
299;75591
299;75593
300;75595
301;75597
301;75599
301;75601
300;75603
299;75606
299;75608
299;75610
300;75612
301;75614
301;75616
302;75618
302;75620
302;75622
301;75624
301;75626
300;75628
300;75630
301;75632
303;75634
303;75636
303;75638
303;75640
302;75642
302;75644
301;75646
301;75648
301;75650
302;75652
303;75654
304;75656
304;75658
304;75660
303;75662
303;75664
302;75666
302;75668
302;75670
302;75672
304;75674
305;75676
305;75678
305;75680
304;75682
304;75684
303;75686
303;75688
304;75691
304;75693
305;75695
305;75697
306;75699
305;75701
305;75703
304;75705
304;75707
304;75709
304;75711
305;75713
306;75715
306;75717
307;75719
306;75721
306;75723
305;75725
306;75727
304;75729
305;75731
306;75734
306;75736
307;75738
307;75740
307;75742
306;75744
305;75746
305;75748
305;75750
306;75752
307;75754
307;75756
308;75758
308;75760
307;75762
307;75764
305;75766
305;75768
306;75770
306;75772
307;75774
308;75776
308;75778
309;75780
307;75782
307;75784
306;75786
306;75788
306;75790
306;75792
307;75794
308;75796
308;75798
308;75800
307;75802
307;75804
306;75806
306;75808
306;75810
307;75812
308;75814
308;75816
309;75819
308;75821
307;75823
307;75825
306;75827
306;75829
306;75831
307;75833
307;75835
308;75837
308;75839
308;75841
307;75843
307;75845
306;75847
306;75849
306;75851
308;75853
308;75855
308;75857
308;75859
308;75862
308;75864
306;75866
306;75868
306;75870
306;75872
307;75874
308;75876
308;75878
308;75880
308;75882
307;75884
306;75886
306;75888
306;75890
307;75892
308;75894
308;75896
308;75898
308;75900
308;75902
307;75904
307;75906
306;75908
306;75910
307;75912
307;75914
308;75916
308;75918
308;75920
308;75922
307;75924
306;75926
307;75928
306;75930
307;75932
307;75934
308;75936
308;75938
308;75940
308;75942
307;75944
306;75947
306;75949
307;75951
307;75953
308;75955
308;75957
308;75959
309;75961
308;75963
307;75965
306;75967
306;75969
307;75971
307;75973
308;75975
308;75977
309;75979
308;75981
307;75983
307;75985
306;75987
306;75990
307;75992
308;75994
308;75996
309;75998
308;76000
308;76002
307;76004
307;76006
306;76008
307;76010
307;76012
307;76014
308;76016
309;76018
308;76020
308;76022
307;76024
307;76026
306;76028
307;76030
307;76032
307;76034
308;76036
309;76038
308;76040
308;76042
308;76044
307;76046
307;76048
308;76050
308;76052
310;76054
310;76056
312;76058
311;76060
311;76062
310;76064
310;76066
309;76068
309;76070
311;76072
310;76075
311;76077
311;76079
311;76081
311;76083
309;76085
309;76087
308;76089
309;76091
309;76093
310;76095
310;76097
310;76099
310;76101
309;76103
308;76105
307;76107
307;76109
307;76111
308;76113
309;76115
309;76118
309;76120
308;76122
308;76124
307;76126
306;76128
306;76130
306;76132
307;76134
308;76136
308;76138
308;76140
307;76142
307;76144
306;76146
305;76148
305;76150
306;76152
305;76154
306;76156
306;76158
306;76160
305;76162
305;76164
304;76166
305;76168
307;76170
310;76172
314;76174
318;76176
323;76178
329;76180
335;76182
340;76184
344;76186
348;76188
350;76190
353;76192
355;76194
356;76196
356;76198
356;76200
355;76203
353;76205
351;76207
349;76209
348;76211
346;76213
345;76215
343;76217
342;76219
340;76221
338;76223
335;76225
333;76227
331;76229
331;76231
329;76233
328;76235
327;76237
326;76239
324;76241
322;76243
320;76246
318;76248
316;76250
315;76252
314;76254
314;76256
313;76258
312;76260
310;76262
308;76264
307;76266
305;76268
305;76270
304;76272
304;76274
304;76276
304;76278
303;76280
301;76282
300;76284
299;76286
299;76288
298;76290
298;76292
299;76294
299;76296
299;76298
298;76300
298;76302
297;76304
295;76306
295;76308
295;76310
296;76312
296;76314
296;76316
296;76318
296;76320
295;76322
295;76324
294;76326
294;76328
294;76331
294;76333
295;76335
296;76337
296;76339
295;76341
295;76343
295;76345
294;76347
294;76349
294;76351
295;76353
295;76355
296;76357
297;76359
296;76361
296;76363
295;76365
295;76367
295;76369
295;76371
296;76374
297;76376
298;76378
298;76380
298;76382
297;76384
297;76386
297;76388
298;76390
298;76392
299;76394
300;76396
301;76398
301;76400
301;76402
301;76404
301;76406
301;76408
303;76410
304;76412
305;76414
306;76416
307;76418
308;76420
308;76422
309;76424
309;76426
310;76428
310;76430
312;76432
313;76434
315;76436
316;76438
317;76440
317;76442
317;76444
317;76446
317;76448
318;76450
319;76452
320;76454
321;76456
321;76459
321;76461
320;76463
320;76465
319;76467
318;76469
318;76471
319;76473
319;76475
319;76477
318;76479
317;76481
316;76483
314;76485
313;76487
313;76489
312;76491
311;76493
311;76495
311;76497
311;76499
309;76502
308;76504
307;76506
306;76508
305;76510
305;76512
304;76514
305;76516
304;76518
304;76520
303;76522
302;76524
301;76526
300;76528
299;76530
299;76532
299;76534
300;76536
300;76538
299;76540
298;76542
298;76544
297;76546
296;76548
296;76550
296;76552
296;76554
297;76556
297;76558
297;76560
296;76562
295;76564
294;76566
294;76568
294;76570
294;76572
295;76574
295;76576
295;76578
295;76580
294;76582
294;76584
293;76587
293;76589
293;76591
293;76593
294;76595
295;76597
295;76599
295;76601
294;76603
293;76605
293;76607
293;76609
293;76611
294;76613
295;76615
295;76617
295;76619
295;76621
294;76623
294;76625
293;76627
294;76630
294;76632
295;76634
296;76636
296;76638
296;76640
296;76642
296;76644
295;76646
296;76648
295;76650
296;76652
297;76654
297;76656
298;76658
298;76660
298;76662
297;76664
297;76666
296;76668
297;76670
298;76672
298;76674
299;76676
299;76678
300;76680
299;76682
299;76684
299;76686
298;76688
298;76690
299;76692
300;76694
301;76696
301;76698
302;76700
301;76702
300;76704
300;76706
299;76708
299;76710
301;76712
301;76715
302;76717
302;76719
302;76721
302;76723
301;76725
301;76727
301;76729
301;76731
302;76733
302;76735
304;76737
303;76739
303;76741
303;76743
302;76745
302;76747
302;76749
302;76751
303;76753
304;76755
304;76758
304;76760
304;76762
304;76764
303;76766
303;76768
303;76770
303;76772
305;76774
305;76776
305;76778
305;76780
305;76782
305;76784
304;76786
304;76788
304;76790
304;76792
305;76794
305;76796
306;76798
305;76800
305;76802
305;76804
304;76806
304;76808
304;76810
304;76812
305;76814
306;76816
306;76818
306;76820
306;76822
305;76824
305;76826
304;76828
305;76830
305;76832
305;76834
306;76836
306;76838
307;76840
306;76843
305;76845
305;76847
305;76849
305;76851
306;76853
306;76855
307;76857
307;76859
307;76861
307;76863
306;76865
306;76867
305;76869
305;76871
305;76873
306;76875
308;76877
307;76879
307;76881
306;76883
305;76886
305;76888
305;76890
305;76892
306;76894
307;76896
307;76898
308;76900
307;76902
306;76904
306;76906
306;76908
305;76910
306;76912
307;76914
307;76916
307;76918
308;76920
307;76922
307;76924
307;76926
306;76928
306;76930
306;76932
307;76934
307;76936
308;76938
309;76940
308;76942
308;76944
307;76946
306;76948
307;76950
307;76952
308;76954
309;76956
309;76958
309;76960
308;76962
307;76964
307;76966
307;76968
307;76971
307;76973
308;76975
308;76977
309;76979
309;76981
309;76983
308;76985
308;76987
308;76989
308;76991
308;76993
309;76995
310;76997
310;76999
310;77001
310;77003
309;77005
308;77007
308;77009
308;77011
309;77014
309;77016
310;77018
310;77020
309;77022
309;77024
308;77026
308;77028
308;77030
309;77032
309;77034
310;77036
310;77038
311;77040
310;77042
309;77044
308;77046
308;77048
308;77050
309;77052
310;77054
309;77056
310;77058
310;77060
309;77062
308;77064
308;77066
307;77068
307;77070
308;77072
308;77074
309;77076
310;77078
309;77080
309;77082
308;77084
307;77086
307;77088
307;77090
308;77092
308;77094
309;77096
308;77099
309;77101
308;77103
308;77105
307;77107
307;77109
307;77111
308;77113
309;77115
309;77117
309;77119
309;77121
309;77123
308;77125
307;77127
308;77129
307;77131
309;77133
309;77135
309;77137
309;77139
309;77142
309;77144
308;77146
307;77148
308;77150
308;77152
309;77154
310;77156
311;77158
311;77160
311;77162
310;77164
310;77166
310;77168
310;77170
311;77172
311;77174
312;77176
312;77178
312;77180
311;77182
311;77184
311;77186
310;77188
309;77190
310;77192
310;77194
311;77196
311;77198
311;77200
310;77202
309;77204
308;77206
307;77208
307;77210
308;77212
308;77214
309;77216
309;77218
309;77220
309;77222
308;77224
306;77227
306;77229
306;77231
307;77233
307;77235
308;77237
308;77239
308;77241
307;77243
307;77245
306;77247
306;77249
306;77251
306;77253
307;77255
307;77257
307;77259
306;77261
305;77263
305;77265
304;77267
305;77270
304;77272
306;77274
308;77276
311;77278
314;77280
317;77282
321;77284
326;77286
332;77288
338;77290
343;77292
348;77294
352;77296
354;77298
355;77300
356;77302
355;77304
355;77306
353;77308
353;77310
353;77312
351;77314
351;77316
349;77318
347;77320
344;77322
342;77324
339;77326
338;77328
337;77330
335;77332
334;77334
333;77336
332;77338
330;77340
328;77342
326;77344
323;77346
322;77348
320;77350
319;77352
318;77355
318;77357
316;77359
315;77361
313;77363
311;77365
309;77367
308;77369
307;77371
307;77373
306;77375
306;77377
305;77379
304;77381
303;77383
302;77385
300;77387
300;77389
299;77391
299;77393
300;77395
300;77398
299;77400
298;77402
297;77404
297;77406
295;77408
295;77410
295;77412
295;77414
296;77416
296;77418
296;77420
295;77422
295;77424
294;77426
294;77428
293;77430
293;77432
294;77434
295;77436
295;77438
295;77440
295;77442
294;77444
294;77446
293;77448
293;77450
294;77452
294;77454
295;77456
295;77458
295;77460
295;77462
294;77464
294;77466
293;77468
294;77470
294;77472
295;77474
295;77476
296;77478
296;77480
296;77483
296;77485
295;77487
294;77489
295;77491
296;77493
297;77495
298;77497
299;77499
299;77501
299;77503
298;77505
298;77507
298;77509
299;77511
300;77513
302;77515
303;77517
304;77519
305;77521
305;77523
304;77526
305;77528
305;77530
307;77532
308;77534
311;77536
311;77538
312;77540
312;77542
313;77544
313;77546
314;77548
314;77550
316;77552
317;77554
318;77556
319;77558
320;77560
319;77562
319;77564
318;77566
318;77568
318;77570
318;77572
319;77574
319;77576
320;77578
319;77580
318;77582
317;77584
316;77586
315;77588
314;77590
314;77592
314;77594
314;77596
313;77598
312;77600
311;77602
310;77604
308;77606
307;77608
307;77611
306;77613
306;77615
306;77617
305;77619
304;77621
303;77623
302;77625
301;77627
300;77629
300;77631
299;77633
300;77635
300;77637
300;77639
299;77641
297;77643
296;77645
295;77647
295;77649
295;77651
296;77654
296;77656
296;77658
296;77660
296;77662
295;77664
294;77666
293;77668
292;77670
293;77672
294;77674
295;77676
294;77678
294;77680
294;77682
293;77684
292;77686
292;77688
292;77690
293;77692
293;77694
294;77696
294;77698
294;77700
293;77702
293;77704
292;77706
292;77708
292;77710
292;77712
293;77714
294;77716
295;77718
295;77720
294;77722
293;77724
292;77726
292;77728
293;77730
293;77732
294;77734
295;77736
295;77739
295;77741
295;77743
294;77745
293;77747
293;77749
294;77751
295;77753
296;77755
296;77757
296;77759
296;77761
295;77763
296;77765
294;77767
295;77769
295;77771
296;77773
297;77775
297;77777
298;77779
298;77782
297;77784
297;77786
296;77788
296;77790
297;77792
298;77794
298;77796
299;77798
299;77800
299;77802
298;77804
298;77806
297;77808
298;77810
298;77812
299;77814
300;77816
300;77818
300;77820
300;77822
299;77824
299;77826
299;77828
299;77830
299;77832
300;77834
301;77836
301;77838
301;77840
301;77842
301;77844
300;77846
300;77848
300;77850
301;77852
301;77854
302;77856
303;77858
303;77860
302;77862
302;77864
301;77867
301;77869
301;77871
302;77873
302;77875
304;77877
304;77879
304;77881
303;77883
303;77885
302;77887
302;77889
303;77891
303;77893
304;77895
304;77897
304;77899
304;77901
303;77903
303;77905
302;77907
303;77910
303;77912
304;77914
304;77916
305;77918
305;77920
305;77922
305;77924
303;77926
303;77928
303;77930
303;77932
304;77934
305;77936
305;77938
305;77940
304;77942
304;77944
304;77946
303;77948
303;77950
304;77952
304;77954
305;77956
306;77958
306;77960
306;77962
305;77964
304;77966
304;77968
305;77970
304;77972
305;77974
306;77976
306;77978
306;77980
306;77982
305;77984
305;77986
304;77988
304;77990
305;77992
306;77995
306;77997
307;77999
306;78001
306;78003
305;78005
305;78007
304;78009
305;78011
306;78013
306;78015
307;78017
307;78019
307;78021
306;78023
305;78025
305;78027
305;78029
306;78031
306;78033
306;78035
307;78038
307;78040
307;78042
306;78044
306;78046
305;78048
305;78050
305;78052
306;78054
307;78056
307;78058
308;78060
307;78062
307;78064
306;78066
305;78068
305;78070
306;78072
307;78074
307;78076
308;78078
308;78080
307;78082
307;78084
306;78086
306;78088
306;78090
306;78092
307;78094
307;78096
308;78098
308;78100
308;78102
307;78104
307;78106
306;78108
307;78110
306;78112
307;78114
308;78116
308;78118
309;78120
308;78123
307;78125
306;78127
306;78129
306;78131
307;78133
307;78135
308;78137
308;78139
309;78141
308;78143
307;78145
306;78147
306;78149
307;78151
307;78153
308;78155
309;78157
309;78159
308;78161
308;78163
307;78166
307;78168
306;78170
307;78172
307;78174
308;78176
309;78178
308;78180
308;78182
307;78184
307;78186
306;78188
306;78190
307;78192
307;78194
308;78196
308;78198
308;78200
307;78202
308;78204
306;78206
306;78208
307;78210
306;78212
308;78214
308;78216
308;78218
309;78220
309;78222
309;78224
308;78226
308;78228
308;78230
309;78232
309;78234
310;78236
310;78238
310;78240
310;78242
309;78244
308;78246
308;78248
308;78251
309;78253
309;78255
310;78257
310;78259
310;78261
309;78263
308;78265
307;78267
307;78269
307;78271
307;78273
308;78275
308;78277
308;78279
308;78281
307;78283
306;78285
305;78287
305;78289
305;78291
306;78294
307;78296
308;78298
307;78300
307;78302
306;78304
305;78306
305;78308
305;78310
305;78312
306;78314
306;78316
306;78318
306;78320
305;78322
304;78324
303;78326
303;78328
303;78330
303;78332
304;78334
305;78336
306;78338
308;78340
310;78342
312;78344
316;78346
320;78348
326;78350
332;78352
339;78354
343;78356
348;78358
350;78360
351;78362
351;78364
351;78366
351;78368
350;78370
350;78372
350;78374
349;78376
348;78379
346;78381
344;78383
341;78385
339;78387
336;78389
335;78391
334;78393
333;78395
332;78397
331;78399
329;78401
327;78403
324;78405
323;78407
321;78409
320;78411
318;78413
318;78415
317;78417
316;78419
314;78422
313;78424
310;78426
309;78428
307;78430
307;78432
307;78434
306;78436
307;78438
305;78440
304;78442
302;78444
301;78446
301;78448
299;78450
299;78452
299;78454
299;78456
299;78458
299;78460
298;78462
297;78464
296;78466
295;78468
295;78470
295;78472
295;78474
296;78476
296;78478
296;78480
295;78482
294;78484
294;78486
293;78488
293;78490
293;78492
294;78494
294;78496
295;78498
295;78500
294;78502
293;78504
293;78507
292;78509
293;78511
294;78513
294;78515
295;78517
295;78519
295;78521
294;78523
293;78525
293;78527
293;78529
293;78531
294;78533
294;78535
295;78537
296;78539
295;78541
295;78543
294;78545
294;78547
294;78550
294;78552
295;78554
296;78556
297;78558
297;78560
297;78562
297;78564
297;78566
296;78568
297;78570
298;78572
299;78574
300;78576
301;78578
302;78580
302;78582
303;78584
302;78586
302;78588
303;78590
304;78592
305;78594
307;78596
308;78598
310;78600
311;78602
310;78604
311;78606
311;78608
311;78610
313;78612
314;78614
316;78616
317;78618
318;78620
317;78622
317;78624
316;78626
317;78628
316;78630
317;78632
318;78635
318;78637
318;78639
318;78641
317;78643
315;78645
314;78647
314;78649
313;78651
313;78653
313;78655
313;78657
312;78659
311;78661
310;78663
309;78665
308;78667
307;78669
306;78671
306;78673
306;78675
306;78678
305;78680
304;78682
303;78684
302;78686
301;78688
301;78690
300;78692
301;78694
300;78696
301;78698
301;78700
300;78702
299;78704
298;78706
297;78708
296;78710
296;78712
297;78714
297;78716
297;78718
297;78720
297;78722
296;78724
295;78726
294;78728
294;78730
294;78732
295;78734
295;78736
295;78738
295;78740
295;78742
294;78744
294;78746
293;78748
293;78750
293;78752
294;78754
295;78756
295;78758
295;78760
295;78763
294;78765
293;78767
293;78769
293;78771
293;78773
295;78775
295;78777
296;78779
295;78781
294;78783
294;78785
293;78787
293;78789
293;78791
295;78793
295;78795
296;78797
296;78799
296;78801
295;78803
295;78806
294;78808
294;78810
295;78812
295;78814
296;78816
297;78818
297;78820
297;78822
296;78824
296;78826
295;78828
296;78830
296;78832
297;78834
297;78836
298;78838
299;78840
298;78842
297;78844
297;78846
297;78848
297;78850
297;78852
298;78854
298;78856
299;78858
299;78860
299;78862
298;78864
298;78866
298;78868
297;78870
298;78872
299;78874
299;78876
300;78878
300;78880
300;78882
298;78884
298;78886
298;78888
298;78891
298;78893
299;78895
300;78897
301;78899
300;78901
300;78903
299;78905
299;78907
298;78909
299;78911
299;78913
300;78915
301;78917
302;78919
301;78921
300;78923
300;78925
299;78927
299;78929
299;78931
300;78934
301;78936
301;78938
301;78940
301;78942
301;78944
299;78946
299;78948
299;78950
300;78952
300;78954
301;78956
301;78958
301;78960
301;78962
300;78964
300;78966
299;78968
299;78970
300;78972
300;78974
300;78976
302;78978
301;78980
301;78982
301;78984
300;78986
300;78988
300;78990
300;78992
302;78994
301;78996
303;78998
302;79000
302;79002
301;79004
301;79006
301;79008
301;79010
302;79012
302;79014
303;79016
303;79019
303;79021
303;79023
302;79025
302;79027
301;79029
301;79031
302;79033
303;79035
304;79037
304;79039
304;79041
304;79043
304;79045
303;79047
302;79049
303;79051
303;79053
304;79055
305;79057
305;79059
305;79062
304;79064
304;79066
303;79068
303;79070
304;79072
304;79074
306;79076
306;79078
306;79080
306;79082
305;79084
305;79086
304;79088
304;79090
305;79092
306;79094
307;79096
307;79098
307;79100
306;79102
306;79104
306;79106
305;79108
305;79110
306;79112
306;79114
307;79116
308;79118
307;79120
307;79122
307;79124
306;79126
306;79128
306;79130
306;79132
307;79134
308;79136
309;79138
308;79140
308;79142
307;79144
306;79147
307;79149
306;79151
307;79153
307;79155
308;79157
308;79159
308;79161
308;79163
307;79165
307;79167
307;79169
307;79171
307;79173
308;79175
309;79177
309;79179
309;79181
308;79183
308;79185
307;79187
307;79190
307;79192
308;79194
309;79196
310;79198
310;79200
310;79202
309;79204
309;79206
308;79208
308;79210
308;79212
309;79214
310;79216
311;79218
310;79220
310;79222
309;79224
309;79226
308;79228
308;79230
308;79232
309;79234
309;79236
310;79238
311;79240
310;79242
309;79244
309;79246
309;79248
309;79250
310;79252
311;79254
312;79256
313;79258
313;79260
313;79262
312;79264
312;79266
311;79268
312;79270
312;79272
313;79275
313;79277
314;79279
314;79281
313;79283
312;79285
311;79287
311;79289
311;79291
311;79293
312;79295
312;79297
313;79299
312;79301
312;79303
310;79305
310;79307
309;79309
310;79311
310;79313
310;79315
311;79318
311;79320
311;79322
310;79324
310;79326
308;79328
308;79330
309;79332
309;79334
310;79336
310;79338
311;79340
310;79342
309;79344
308;79346
308;79348
307;79350
308;79352
308;79354
308;79356
309;79358
309;79360
308;79362
308;79364
307;79366
307;79368
308;79370
310;79372
313;79374
317;79376
322;79378
326;79380
331;79382
336;79384
340;79386
343;79388
346;79390
348;79392
350;79394
351;79396
351;79398
351;79400
349;79403
347;79405
346;79407
344;79409
343;79411
341;79413
341;79415
338;79417
337;79419
335;79421
333;79423
331;79425
328;79427
327;79429
326;79431
325;79433
324;79435
323;79437
323;79439
320;79441
319;79443
317;79446
316;79448
314;79450
313;79452
313;79454
313;79456
312;79458
311;79460
310;79462
309;79464
307;79466
306;79468
305;79470
305;79472
304;79474
304;79476
304;79478
304;79480
303;79482
302;79484
301;79486
300;79488
300;79490
299;79492
301;79494
300;79496
301;79498
300;79500
299;79502
299;79504
298;79506
297;79508
297;79510
297;79512
298;79514
299;79516
299;79518
299;79520
299;79522
298;79524
298;79526
297;79528
297;79531
297;79533
298;79535
298;79537
299;79539
299;79541
298;79543
298;79545
297;79547
297;79549
297;79551
298;79553
299;79555
299;79557
300;79559
300;79561
299;79563
299;79565
298;79567
298;79569
299;79571
300;79574
300;79576
302;79578
301;79580
301;79582
301;79584
300;79586
300;79588
300;79590
301;79592
302;79594
303;79596
304;79598
305;79600
305;79602
305;79604
305;79606
305;79608
305;79610
307;79612
308;79614
309;79616
310;79618
312;79620
311;79622
312;79624
312;79626
312;79628
314;79630
314;79632
316;79634
317;79636
318;79638
319;79640
320;79642
320;79644
320;79646
320;79648
320;79650
321;79652
322;79654
323;79656
324;79659
324;79661
324;79663
323;79665
322;79667
321;79669
320;79671
321;79673
321;79675
321;79677
321;79679
321;79681
319;79683
318;79685
316;79687
315;79689
314;79691
314;79693
314;79695
314;79697
314;79699
313;79702
312;79704
310;79706
308;79708
308;79710
307;79712
308;79714
307;79716
308;79718
307;79720
306;79722
304;79724
303;79726
303;79728
302;79730
302;79732
302;79734
302;79736
303;79738
302;79740
301;79742
301;79744
300;79746
299;79748
299;79750
298;79752
299;79754
300;79756
300;79758
300;79760
299;79762
298;79764
297;79766
297;79768
297;79770
297;79772
297;79774
298;79776
298;79778
298;79780
298;79782
297;79784
296;79787
296;79789
296;79791
297;79793
297;79795
298;79797
298;79799
298;79801
297;79803
297;79805
296;79807
296;79809
296;79811
296;79813
297;79815
298;79817
298;79819
298;79821
297;79823
297;79825
296;79827
296;79830
297;79832
297;79834
298;79836
299;79838
299;79840
299;79842
299;79844
298;79846
297;79848
297;79850
298;79852
299;79854
299;79856
300;79858
300;79860
300;79862
299;79864
299;79866
298;79868
298;79870
298;79872
299;79874
300;79876
301;79878
301;79880
301;79882
301;79884
300;79886
299;79888
300;79890
300;79892
301;79894
302;79896
303;79898
303;79900
303;79902
302;79904
301;79906
301;79908
301;79910
301;79912
303;79915
303;79917
303;79919
304;79921
303;79923
303;79925
302;79927
302;79929
302;79931
302;79933
303;79935
304;79937
305;79939
304;79941
304;79943
303;79945
303;79947
303;79949
303;79951
304;79953
304;79955
306;79958
306;79960
305;79962
305;79964
304;79966
304;79968
303;79970
304;79972
305;79974
305;79976
306;79978
306;79980
306;79982
305;79984
305;79986
304;79988
304;79990
305;79992
306;79994
306;79996
307;79998
307;80000
307;80002
306;80004
305;80006
305;80008
305;80010
305;80012
306;80014
306;80016
307;80018
307;80020
307;80022
306;80024
305;80026
305;80028
305;80030
306;80032
306;80034
308;80036
307;80038
308;80040
307;80043
307;80045
306;80047
306;80049
306;80051
306;80053
307;80055
308;80057
308;80059
308;80061
308;80063
307;80065
306;80067
306;80069
306;80071
307;80073
308;80075
308;80077
308;80079
308;80081
308;80083
307;80086
306;80088
306;80090
306;80092
307;80094
308;80096
309;80098
309;80100
308;80102
307;80104
307;80106
306;80108
306;80110
307;80112
307;80114
308;80116
308;80118
309;80120
308;80122
307;80124
307;80126
306;80128
306;80130
307;80132
307;80134
308;80136
308;80138
308;80140
309;80142
308;80144
307;80146
307;80148
306;80150
307;80152
308;80154
308;80156
309;80158
309;80160
308;80162
308;80164
307;80166
307;80168
307;80171
308;80173
308;80175
310;80177
309;80179
309;80181
309;80183
308;80185
308;80187
307;80189
307;80191
308;80193
309;80195
309;80197
310;80199
310;80201
309;80203
308;80205
308;80207
307;80209
308;80211
308;80214
309;80216
310;80218
310;80220
310;80222
309;80224
308;80226
308;80228
308;80230
308;80232
309;80234
309;80236
310;80238
310;80240
309;80242
309;80244
309;80246
308;80248
308;80250
308;80252
309;80254
310;80256
310;80258
310;80260
310;80262
309;80264
309;80266
308;80268
308;80270
308;80272
308;80274
309;80276
310;80278
310;80280
310;80282
309;80284
309;80286
309;80288
309;80290
310;80292
311;80294
312;80296
313;80299
313;80301
312;80303
311;80305
311;80307
311;80309
311;80311
311;80313
312;80315
312;80317
313;80319
312;80321
311;80323
311;80325
310;80327
309;80329
310;80331
310;80333
311;80335
311;80337
311;80339
310;80342
310;80344
309;80346
308;80348
309;80350
308;80352
309;80354
309;80356
310;80358
310;80360
309;80362
309;80364
308;80366
307;80368
307;80370
307;80372
308;80374
309;80376
309;80378
309;80380
308;80382
308;80384
307;80386
306;80388
305;80390
305;80392
306;80394
306;80396
307;80398
307;80400
307;80402
308;80404
309;80406
311;80408
314;80410
319;80412
324;80414
330;80416
337;80418
342;80420
347;80422
349;80424
351;80427
353;80429
353;80431
354;80433
354;80435
354;80437
355;80439
353;80441
352;80443
349;80445
346;80447
344;80449
342;80451
340;80453
339;80455
338;80457
336;80459
335;80461
332;80463
330;80465
328;80467
327;80470
326;80472
324;80474
323;80476
322;80478
321;80480
320;80482
318;80484
316;80486
314;80488
313;80490
312;80492
311;80494
311;80496
310;80498
310;80500
308;80502
307;80504
305;80506
304;80508
303;80510
303;80512
303;80514
303;80516
303;80518
303;80520
302;80522
301;80524
300;80526
298;80528
298;80530
299;80532
298;80534
299;80536
299;80538
299;80540
298;80542
297;80544
296;80546
296;80548
295;80550
296;80552
296;80555
297;80557
297;80559
297;80561
296;80563
296;80565
295;80567
295;80569
295;80571
295;80573
296;80575
297;80577
297;80579
297;80581
296;80583
296;80585
295;80587
295;80589
295;80591
296;80593
297;80595
298;80598
298;80600
298;80602
297;80604
297;80606
296;80608
296;80610
297;80612
298;80614
299;80616
299;80618
299;80620
299;80622
299;80624
299;80626
299;80628
299;80630
300;80632
301;80634
302;80636
303;80638
303;80640
304;80642
303;80644
303;80646
303;80648
304;80650
305;80652
307;80654
308;80656
310;80658
310;80660
311;80662
311;80664
311;80666
312;80668
312;80670
314;80672
315;80674
317;80676
318;80678
319;80680
319;80683
319;80685
319;80687
319;80689
319;80691
320;80693
321;80695
321;80697
322;80699
322;80701
321;80703
321;80705
319;80707
319;80709
318;80711
318;80713
318;80715
318;80717
318;80719
317;80721
316;80723
314;80726
313;80728
312;80730
311;80732
311;80734
311;80736
311;80738
310;80740
310;80742
308;80744
307;80746
305;80748
305;80750
305;80752
304;80754
305;80756
304;80758
304;80760
303;80762
302;80764
301;80766
300;80768
299;80770
299;80772
300;80774
300;80776
300;80778
299;80780
299;80782
299;80784
298;80786
296;80788
296;80790
296;80792
297;80794
297;80796
299;80798
297;80800
297;80802
296;80804
295;80806
295;80808
294;80811
295;80813
295;80815
296;80817
296;80819
296;80821
296;80823
294;80825
294;80827
293;80829
293;80831
294;80833
295;80835
295;80837
296;80839
295;80841
295;80843
295;80845
294;80847
293;80849
294;80851
295;80854
295;80856
296;80858
296;80860
296;80862
295;80864
294;80866
294;80868
294;80870
295;80872
295;80874
296;80876
297;80878
297;80880
297;80882
297;80884
296;80886
295;80888
295;80890
296;80892
296;80894
297;80896
298;80898
298;80900
298;80902
298;80904
297;80906
296;80908
296;80910
297;80912
298;80914
299;80916
299;80918
300;80920
300;80922
299;80924
298;80926
298;80928
298;80930
298;80932
299;80934
300;80936
300;80939
301;80941
301;80943
300;80945
299;80947
299;80949
299;80951
300;80953
301;80955
302;80957
302;80959
303;80961
302;80963
301;80965
301;80967
301;80969
301;80971
302;80973
302;80975
303;80977
304;80979
303;80982
303;80984
303;80986
302;80988
302;80990
302;80992
302;80994
304;80996
304;80998
304;81000
304;81002
304;81004
303;81006
303;81008
303;81010
303;81012
304;81014
304;81016
305;81018
306;81020
304;81022
304;81024
304;81026
304;81028
303;81030
304;81032
304;81034
305;81036
305;81038
306;81040
306;81042
305;81044
304;81046
304;81048
304;81050
304;81052
305;81054
306;81056
306;81058
307;81060
306;81062
306;81064
305;81067
305;81069
304;81071
305;81073
306;81075
307;81077
307;81079
307;81081
306;81083
306;81085
306;81087
305;81089
305;81091
306;81093
306;81095
307;81097
307;81099
307;81101
307;81103
306;81105
305;81107
305;81110
305;81112
306;81114
307;81116
307;81118
308;81120
307;81122
307;81124
306;81126
305;81128
305;81130
305;81132
307;81134
307;81136
309;81138
308;81140
308;81142
306;81144
306;81146
306;81148
306;81150
305;81152
306;81154
307;81156
307;81158
307;81160
307;81162
307;81164
307;81166
305;81168
305;81170
305;81172
306;81174
307;81176
307;81178
308;81180
307;81182
306;81184
306;81186
305;81188
305;81190
305;81192
307;81195
307;81197
307;81199
307;81201
307;81203
306;81205
305;81207
305;81209
305;81211
306;81213
306;81215
308;81217
307;81219
308;81221
307;81223
306;81225
306;81227
305;81229
305;81231
306;81233
307;81235
307;81238
307;81240
307;81242
306;81244
306;81246
305;81248
305;81250
305;81252
306;81254
307;81256
307;81258
308;81260
307;81262
307;81264
306;81266
305;81268
305;81270
306;81272
307;81274
307;81276
308;81278
308;81280
308;81282
307;81284
306;81286
306;81288
305;81290
306;81292
306;81294
307;81296
308;81298
308;81300
309;81302
307;81304
306;81306
306;81308
306;81310
306;81312
307;81314
307;81316
308;81318
308;81320
307;81323
306;81325
306;81327
306;81329
306;81331
307;81333
308;81335
309;81337
310;81339
309;81341
309;81343
309;81345
309;81347
309;81349
309;81351
310;81353
310;81355
310;81357
311;81359
311;81361
310;81363
309;81366
309;81368
308;81370
308;81372
308;81374
309;81376
310;81378
310;81380
309;81382
309;81384
307;81386
307;81388
307;81390
307;81392
307;81394
308;81396
308;81398
309;81400
308;81402
307;81404
306;81406
306;81408
306;81410
305;81412
306;81414
307;81416
307;81418
308;81420
307;81422
306;81424
306;81426
305;81428
305;81430
305;81432
305;81434
306;81436
306;81438
306;81440
306;81442
304;81444
303;81446
303;81448
303;81451
304;81453
305;81455
308;81457
311;81459
314;81461
318;81463
322;81465
327;81467
333;81469
339;81471
344;81473
348;81475
351;81477
353;81479
355;81481
355;81483
354;81485
353;81487
353;81489
352;81491
352;81494
350;81496
349;81498
347;81500
344;81502
342;81504
339;81506
337;81508
335;81510
334;81512
333;81514
332;81516
331;81518
329;81520
328;81522
325;81524
323;81526
321;81528
319;81530
318;81532
317;81534
318;81536
316;81538
315;81540
313;81542
312;81544
310;81546
308;81548
307;81550
306;81552
306;81554
306;81556
305;81558
304;81560
303;81562
303;81564
300;81566
299;81568
299;81570
299;81572
298;81574
299;81576
299;81579
299;81581
298;81583
297;81585
296;81587
295;81589
295;81591
295;81593
295;81595
296;81597
296;81599
296;81601
295;81603
294;81605
293;81607
293;81609
293;81611
294;81613
295;81615
295;81617
296;81619
295;81622
294;81624
294;81626
293;81628
293;81630
293;81632
294;81634
294;81636
295;81638
295;81640
295;81642
294;81644
294;81646
294;81648
294;81650
293;81652
295;81654
296;81656
296;81658
296;81660
296;81662
295;81664
295;81666
295;81668
295;81670
295;81672
296;81674
298;81676
298;81678
299;81680
299;81682
299;81684
298;81686
298;81688
299;81690
300;81692
301;81694
302;81696
304;81698
304;81700
305;81702
305;81704
305;81707
306;81709
306;81711
307;81713
309;81715
310;81717
312;81719
313;81721
313;81723
313;81725
314;81727
314;81729
315;81731
316;81733
317;81735
319;81737
320;81739
320;81741
320;81743
320;81745
319;81747
318;81750
319;81752
319;81754
319;81756
320;81758
319;81760
319;81762
318;81764
317;81766
315;81768
315;81770
314;81772
314;81774
314;81776
314;81778
313;81780
313;81782
311;81784
309;81786
308;81788
307;81790
307;81792
307;81794
307;81796
307;81798
306;81800
306;81802
304;81804
303;81806
302;81808
301;81810
301;81812
301;81814
301;81816
302;81818
301;81820
300;81822
300;81824
298;81826
297;81828
297;81830
297;81832
298;81835
298;81837
298;81839
298;81841
297;81843
296;81845
295;81847
295;81849
295;81851
295;81853
296;81855
296;81857
296;81859
296;81861
295;81863
295;81865
294;81867
294;81869
294;81871
294;81873
295;81875
295;81878
296;81880
295;81882
295;81884
294;81886
294;81888
294;81890
294;81892
294;81894
295;81896
295;81898
296;81900
295;81902
295;81904
295;81906
294;81908
294;81910
294;81912
295;81914
296;81916
297;81918
297;81920
296;81922
296;81924
295;81926
295;81928
295;81930
296;81932
296;81934
297;81936
298;81938
298;81940
297;81942
297;81944
297;81946
296;81948
296;81950
297;81952
297;81954
298;81956
299;81958
300;81960
299;81963
299;81965
298;81967
297;81969
297;81971
298;81973
299;81975
300;81977
300;81979
300;81981
300;81983
300;81985
299;81987
299;81989
299;81991
300;81993
300;81995
301;81997
302;81999
302;82001
301;82003
301;82006
300;82008
300;82010
300;82012
301;82014
302;82016
302;82018
303;82020
302;82022
302;82024
302;82026
301;82028
301;82030
301;82032
302;82034
303;82036
304;82038
304;82040
303;82042
303;82044
302;82046
302;82048
302;82050
302;82052
303;82054
303;82056
304;82058
304;82060
304;82062
303;82064
303;82066
302;82068
302;82070
302;82072
303;82074
304;82076
305;82078
305;82080
304;82082
304;82084
304;82086
303;82088
304;82091
303;82093
304;82095
305;82097
305;82099
306;82101
305;82103
305;82105
304;82107
303;82109
303;82111
304;82113
305;82115
305;82117
306;82119
306;82121
305;82123
304;82125
304;82127
304;82129
304;82131
305;82134
305;82136
306;82138
306;82140
306;82142
305;82144
305;82146
304;82148
304;82150
304;82152
305;82154
305;82156
306;82158
307;82160
306;82162
305;82164
305;82166
304;82168
304;82170
304;82172
305;82174
305;82176
306;82178
307;82180
306;82182
305;82184
305;82186
304;82188
304;82190
304;82192
305;82194
305;82196
306;82198
307;82200
306;82202
306;82204
305;82206
304;82208
304;82210
305;82212
305;82214
307;82216
307;82219
306;82221
306;82223
305;82225
305;82227
304;82229
304;82231
305;82233
305;82235
306;82237
306;82239
306;82241
306;82243
305;82245
305;82247
305;82249
305;82251
306;82253
306;82255
306;82257
307;82259
306;82262
307;82264
305;82266
305;82268
304;82270
305;82272
305;82274
306;82276
306;82278
307;82280
307;82282
306;82284
305;82286
305;82288
304;82290
305;82292
305;82294
306;82296
307;82298
307;82300
307;82302
306;82304
306;82306
305;82308
304;82310
305;82312
305;82314
306;82316
306;82318
307;82320
307;82322
306;82324
305;82326
305;82328
305;82330
306;82332
306;82334
307;82336
307;82338
307;82340
307;82342
306;82344
306;82347
305;82349
305;82351
305;82353
306;82355
307;82357
307;82359
308;82361
307;82363
306;82365
305;82367
305;82369
305;82371
306;82373
306;82375
307;82377
308;82379
307;82381
307;82383
306;82385
306;82387
305;82390
305;82392
306;82394
307;82396
307;82398
307;82400
307;82402
307;82404
307;82406
306;82408
307;82410
307;82412
308;82414
309;82416
310;82418
310;82420
310;82422
309;82424
309;82426
308;82428
309;82430
308;82432
309;82434
309;82436
310;82438
310;82440
310;82442
309;82444
308;82446
308;82448
307;82450
307;82452
308;82454
309;82456
309;82458
309;82460
308;82462
308;82464
307;82466
307;82468
306;82470
307;82472
307;82475
307;82477
308;82479
308;82481
307;82483
307;82485
306;82487
306;82489
305;82491
305;82493
306;82495
307;82497
307;82499
307;82501
306;82503
306;82505
304;82507
304;82509
304;82511
304;82513
304;82515
305;82518
305;82520
305;82522
304;82524
304;82526
305;82528
306;82530
309;82532
313;82534
318;82536
323;82538
329;82540
336;82542
340;82544
344;82546
347;82548
349;82550
351;82552
352;82554
354;82556
353;82558
353;82560
353;82562
351;82564
349;82566
347;82568
345;82570
343;82572
342;82574
340;82576
339;82578
338;82580
336;82582
333;82584
331;82586
329;82588
328;82590
326;82592
326;82594
324;82596
323;82598
322;82600
320;82603
318;82605
316;82607
315;82609
313;82611
312;82613
311;82615
311;82617
311;82619
309;82621
308;82623
306;82625
304;82627
304;82629
303;82631
302;82633
302;82635
302;82637
302;82639
301;82641
300;82643
299;82646
297;82648
297;82650
297;82652
297;82654
297;82656
298;82658
297;82660
297;82662
296;82664
295;82666
294;82668
294;82670
294;82672
294;82674
295;82676
295;82678
295;82680
295;82682
294;82684
293;82686
293;82688
293;82690
293;82692
294;82694
294;82696
295;82698
295;82700
295;82702
294;82704
294;82706
293;82708
293;82710
294;82712
294;82714
295;82716
295;82718
295;82720
295;82722
295;82724
294;82726
294;82728
294;82731
294;82733
295;82735
296;82737
296;82739
297;82741
296;82743
297;82745
296;82747
296;82749
296;82751
297;82753
298;82755
299;82757
300;82759
300;82761
300;82763
300;82765
300;82767
300;82769
301;82771
302;82774
304;82776
305;82778
306;82780
307;82782
307;82784
307;82786
307;82788
308;82790
309;82792
310;82794
313;82796
314;82798
315;82800
315;82802
316;82804
315;82806
316;82808
316;82810
317;82812
318;82814
318;82816
320;82818
320;82820
320;82822
319;82824
318;82826
317;82828
317;82830
317;82832
317;82834
317;82836
318;82838
317;82840
316;82842
315;82844
314;82846
313;82848
312;82850
311;82852
311;82854
311;82856
311;82859
310;82861
310;82863
308;82865
306;82867
305;82869
305;82871
304;82873
305;82875
305;82877
304;82879
304;82881
303;82883
