mV;time
0;0
307;2
307;4
305;6
304;8
301;10
303;12
301;14
300;16
299;18
298;20
298;22
296;24
295;26
295;28
294;30
293;32
292;34
290;36
290;38
289;40
289;43
288;45
286;47
287;49
286;51
286;53
286;55
289;57
284;59
284;61
284;63
283;65
282;67
282;69
282;71
282;73
282;75
281;77
281;79
281;81
280;83
280;86
280;88
280;90
280;92
280;94
279;96
280;98
280;100
280;102
280;104
280;106
280;108
279;110
280;112
279;114
279;116
279;118
280;120
280;122
281;124
280;126
280;128
280;130
281;132
281;134
281;136
281;138
282;140
282;142
282;144
282;146
282;148
283;150
283;152
283;154
282;156
283;158
284;160
284;162
284;164
287;166
285;168
285;171
285;173
285;175
286;177
285;179
286;181
287;183
287;185
287;187
287;189
287;191
287;193
287;195
287;197
288;199
288;201
288;203
288;205
288;207
288;209
289;211
289;214
289;216
289;218
289;220
289;222
289;224
289;226
290;228
290;230
290;232
292;234
290;236
290;238
290;240
290;242
291;244
291;246
291;248
292;250
291;252
291;254
292;256
292;258
292;260
292;262
292;264
292;266
291;268
291;270
291;272
291;274
294;276
292;278
292;280
292;282
292;284
292;286
293;288
293;290
292;292
293;294
293;296
292;299
292;301
293;303
293;305
292;307
293;309
293;311
293;313
293;315
293;317
293;319
293;321
293;323
293;325
294;327
293;329
293;331
294;333
293;335
293;337
294;339
294;342
293;344
293;346
294;348
294;350
294;352
293;354
294;356
294;358
293;360
294;362
293;364
294;366
294;368
294;370
294;372
294;374
294;376
294;378
294;380
294;382
294;384
295;386
294;388
295;390
294;392
294;394
294;396
294;398
294;400
295;402
295;404
295;406
295;408
295;410
295;412
294;414
295;416
295;418
295;420
295;422
295;424
294;427
295;429
295;431
295;433
295;435
295;437
296;439
295;441
296;443
296;445
297;447
297;449
297;451
295;453
297;455
298;457
299;459
299;461
299;463
300;465
300;467
300;470
300;472
300;474
301;476
300;478
301;480
301;482
300;484
300;486
300;488
300;490
300;492
300;494
300;496
300;498
298;500
300;502
299;504
298;506
298;508
302;510
298;512
298;514
299;516
297;518
297;520
297;522
296;524
296;526
296;528
296;530
296;532
296;534
296;536
295;538
295;540
295;542
295;544
295;546
295;548
295;550
294;552
294;555
295;557
294;559
294;561
291;563
294;565
294;567
294;569
294;571
294;573
294;575
294;577
293;579
293;581
293;583
291;585
290;587
289;589
288;591
286;593
284;595
284;598
284;600
285;602
288;604
292;606
298;608
302;610
312;612
321;614
329;616
335;618
344;620
341;622
342;624
339;626
336;628
333;630
329;632
324;634
320;636
314;638
312;640
305;642
300;644
295;646
290;648
287;650
284;652
282;654
279;656
278;658
276;660
274;662
274;664
275;666
275;668
276;670
274;672
277;674
278;676
279;678
280;680
278;683
282;685
282;687
283;689
283;691
285;693
286;695
286;697
287;699
288;701
289;703
289;705
290;707
290;709
291;711
292;713
293;715
293;717
292;719
294;721
295;723
296;726
295;728
301;730
297;732
298;734
298;736
298;738
299;740
299;742
299;744
300;746
300;748
301;750
300;752
301;754
301;756
302;758
302;760
303;762
303;764
303;766
303;768
303;770
304;772
304;774
304;776
305;778
305;780
303;782
305;784
306;786
305;788
305;790
308;792
306;794
307;796
307;798
307;800
307;802
307;804
308;806
308;808
308;811
309;813
308;815
309;817
309;819
309;821
310;823
310;825
311;827
310;829
311;831
311;833
311;835
312;837
315;839
313;841
314;843
314;845
314;847
315;849
316;851
315;854
317;856
317;858
318;860
318;862
318;864
319;866
320;868
320;870
321;872
321;874
322;876
322;878
323;880
322;882
323;884
324;886
324;888
324;890
324;892
324;894
324;896
324;898
324;900
329;902
324;904
324;906
323;908
323;910
322;912
322;914
321;916
321;918
320;920
319;922
318;924
317;926
316;928
315;930
314;932
313;934
312;936
310;939
309;941
308;943
307;945
305;947
306;949
304;951
303;953
301;955
300;957
299;959
297;961
297;963
296;965
295;967
294;969
293;971
292;973
291;975
290;977
289;979
289;982
288;984
288;986
286;988
286;990
285;992
285;994
284;996
284;998
284;1000
283;1002
282;1004
282;1006
281;1008
281;1010
281;1012
281;1014
279;1016
280;1018
280;1020
279;1022
280;1024
279;1026
280;1028
279;1030
279;1032
280;1034
279;1036
279;1038
279;1040
279;1042
279;1044
279;1046
279;1048
280;1050
279;1052
279;1054
279;1056
280;1058
280;1060
280;1062
279;1064
280;1067
280;1069
281;1071
280;1073
281;1075
281;1077
282;1079
282;1081
281;1083
282;1085
283;1087
282;1089
283;1091
283;1093
283;1095
284;1097
283;1099
284;1101
284;1103
285;1105
285;1107
286;1110
285;1112
285;1114
286;1116
286;1118
286;1120
287;1122
287;1124
285;1126
287;1128
287;1130
287;1132
287;1134
287;1136
288;1138
288;1140
289;1142
288;1144
289;1146
288;1148
289;1150
289;1152
289;1154
289;1156
290;1158
290;1160
290;1162
290;1164
290;1166
290;1168
290;1170
290;1172
290;1174
290;1176
291;1178
290;1180
291;1182
291;1184
291;1186
293;1188
291;1190
292;1192
291;1195
291;1197
291;1199
292;1201
292;1203
292;1205
292;1207
291;1209
292;1211
292;1213
292;1215
292;1217
292;1219
292;1221
293;1223
292;1225
292;1227
293;1229
293;1231
293;1233
290;1235
293;1238
293;1240
293;1242
293;1244
292;1246
294;1248
294;1250
294;1252
294;1254
293;1256
294;1258
293;1260
294;1262
294;1264
294;1266
293;1268
294;1270
293;1272
294;1274
294;1276
294;1278
295;1280
294;1282
294;1284
294;1286
294;1288
293;1290
294;1292
294;1294
295;1296
293;1298
295;1300
294;1302
295;1304
295;1306
296;1308
296;1310
296;1312
297;1314
296;1316
297;1318
297;1320
297;1323
298;1325
298;1327
299;1329
299;1331
300;1333
299;1335
300;1337
300;1339
301;1341
301;1343
298;1345
301;1347
300;1349
300;1351
300;1353
297;1355
300;1357
300;1359
300;1361
300;1363
299;1366
299;1368
300;1370
299;1372
299;1374
299;1376
298;1378
298;1380
298;1382
298;1384
297;1386
297;1388
297;1390
296;1392
297;1394
296;1396
296;1398
295;1400
299;1402
296;1404
296;1406
293;1408
295;1410
295;1412
295;1414
294;1416
295;1418
295;1420
295;1422
294;1424
293;1426
294;1428
294;1430
294;1432
294;1434
294;1436
294;1438
293;1440
293;1442
294;1444
294;1446
293;1448
293;1451
292;1453
288;1455
289;1457
288;1459
286;1461
285;1463
287;1465
284;1467
285;1469
288;1471
291;1473
295;1475
302;1477
309;1479
318;1481
326;1483
332;1485
336;1487
338;1489
338;1491
337;1494
335;1496
332;1498
329;1500
324;1502
320;1504
315;1506
310;1508
304;1510
301;1512
294;1514
289;1516
286;1518
283;1520
280;1522
278;1524
276;1526
275;1528
274;1530
274;1532
274;1534
274;1536
275;1538
276;1540
276;1542
278;1544
279;1546
280;1548
280;1550
282;1552
282;1554
283;1556
284;1558
285;1560
286;1562
285;1564
287;1566
288;1568
289;1570
290;1572
295;1574
292;1576
293;1579
293;1581
293;1583
294;1585
295;1587
296;1589
297;1591
297;1593
298;1595
298;1597
298;1599
299;1601
300;1603
300;1605
301;1607
301;1609
301;1611
301;1613
302;1615
302;1617
303;1619
304;1622
304;1624
304;1626
304;1628
304;1630
305;1632
305;1634
305;1636
306;1638
306;1640
307;1642
306;1644
307;1646
307;1648
307;1650
308;1652
308;1654
308;1656
308;1658
309;1660
309;1662
309;1664
309;1666
309;1668
310;1670
310;1672
310;1674
310;1676
310;1678
310;1680
311;1682
315;1684
312;1686
312;1688
312;1690
312;1692
313;1694
313;1696
313;1698
314;1700
315;1702
315;1704
315;1707
316;1709
316;1711
316;1713
317;1715
317;1717
318;1719
318;1721
319;1723
319;1725
320;1727
320;1729
321;1731
321;1733
322;1735
322;1737
323;1739
323;1741
324;1743
324;1745
325;1747
325;1750
326;1752
325;1754
325;1756
326;1758
325;1760
326;1762
326;1764
326;1766
326;1768
326;1770
325;1772
325;1774
324;1776
324;1778
323;1780
323;1782
321;1784
321;1786
319;1788
319;1790
318;1792
319;1794
317;1796
316;1798
314;1800
313;1802
311;1804
311;1806
310;1808
309;1810
307;1812
306;1814
305;1816
304;1818
302;1820
301;1822
299;1824
299;1826
298;1828
297;1830
295;1832
295;1835
294;1837
293;1839
292;1841
291;1843
291;1845
289;1847
288;1849
288;1851
288;1853
286;1855
287;1857
286;1859
286;1861
284;1863
284;1865
284;1867
284;1869
282;1871
282;1873
282;1875
282;1878
281;1880
281;1882
281;1884
281;1886
281;1888
280;1890
280;1892
280;1894
279;1896
279;1898
279;1900
279;1902
280;1904
280;1906
277;1908
279;1910
279;1912
280;1914
280;1916
276;1918
280;1920
280;1922
280;1924
280;1926
280;1928
280;1930
281;1932
281;1934
281;1936
282;1938
282;1940
282;1942
281;1944
282;1946
283;1948
283;1950
283;1952
284;1954
283;1956
283;1958
283;1960
284;1963
284;1965
285;1967
285;1969
283;1971
286;1973
285;1975
285;1977
286;1979
286;1981
287;1983
286;1985
287;1987
287;1989
287;1991
287;1993
287;1995
288;1997
288;1999
288;2001
288;2003
289;2006
289;2008
288;2010
288;2012
289;2014
289;2016
287;2018
289;2020
289;2022
290;2024
290;2026
291;2028
290;2030
290;2032
290;2034
290;2036
290;2038
291;2040
291;2042
291;2044
291;2046
291;2048
292;2050
291;2052
291;2054
291;2056
291;2058
292;2060
292;2062
292;2064
292;2066
292;2068
292;2070
292;2072
292;2074
292;2076
292;2078
290;2080
292;2082
292;2084
292;2086
293;2088
293;2091
293;2093
293;2095
293;2097
293;2099
293;2101
293;2103
293;2105
294;2107
294;2109
294;2111
293;2113
293;2115
294;2117
294;2119
294;2121
294;2123
294;2125
292;2127
294;2129
294;2131
294;2134
294;2136
299;2138
295;2140
295;2142
294;2144
295;2146
295;2148
296;2150
296;2152
296;2154
296;2156
297;2158
297;2160
296;2162
297;2164
297;2166
298;2168
298;2170
298;2172
299;2174
299;2176
299;2178
300;2180
300;2182
301;2184
302;2186
302;2188
298;2190
302;2192
302;2194
301;2196
301;2198
299;2200
301;2202
301;2204
301;2206
301;2208
301;2210
301;2212
301;2214
301;2216
301;2219
301;2221
300;2223
300;2225
300;2227
299;2229
299;2231
299;2233
298;2235
296;2237
298;2239
298;2241
296;2243
296;2245
301;2247
296;2249
296;2251
295;2253
295;2255
295;2257
295;2259
295;2262
295;2264
295;2266
295;2268
294;2270
294;2272
294;2274
294;2276
294;2278
294;2280
294;2282
293;2284
293;2286
293;2288
293;2290
293;2292
294;2294
294;2296
294;2298
293;2300
293;2302
292;2304
291;2306
290;2308
288;2310
288;2312
286;2314
285;2316
284;2318
285;2320
287;2322
290;2324
294;2326
300;2328
307;2330
315;2332
323;2334
330;2336
336;2338
340;2340
343;2342
343;2344
340;2347
338;2349
335;2351
331;2353
327;2355
325;2357
318;2359
312;2361
306;2363
301;2365
296;2367
292;2369
289;2371
286;2373
283;2375
281;2377
279;2379
278;2381
277;2383
277;2385
277;2387
278;2390
278;2392
279;2394
280;2396
280;2398
281;2400
282;2402
283;2404
283;2406
284;2408
284;2410
286;2412
286;2414
287;2416
288;2418
288;2420
289;2422
291;2424
290;2426
290;2428
291;2430
292;2432
292;2434
293;2436
294;2438
294;2440
295;2442
295;2444
295;2446
296;2448
297;2450
297;2452
298;2454
298;2456
298;2458
299;2460
300;2462
299;2464
302;2466
301;2468
301;2470
301;2472
301;2475
302;2477
302;2479
302;2481
303;2483
303;2485
303;2487
303;2489
304;2491
304;2493
304;2495
304;2497
305;2499
305;2501
306;2503
305;2505
306;2507
306;2509
305;2511
306;2513
307;2515
307;2518
307;2520
307;2522
307;2524
307;2526
307;2528
308;2530
309;2532
308;2534
309;2536
309;2538
309;2540
310;2542
310;2544
311;2546
311;2548
311;2550
312;2552
312;2554
313;2556
313;2558
313;2560
314;2562
314;2564
315;2566
315;2568
316;2570
316;2572
317;2574
318;2576
318;2578
319;2580
319;2582
319;2584
320;2586
320;2588
321;2590
322;2592
322;2594
323;2596
323;2598
323;2600
323;2603
323;2605
324;2607
324;2609
325;2611
324;2613
325;2615
325;2617
324;2619
324;2621
325;2623
324;2625
324;2627
323;2629
322;2631
322;2633
321;2635
320;2637
320;2639
319;2641
315;2643
317;2646
315;2648
314;2650
313;2652
312;2654
311;2656
310;2658
309;2660
307;2662
306;2664
306;2666
304;2668
303;2670
302;2672
301;2674
300;2676
299;2678
297;2680
296;2682
295;2684
295;2686
294;2688
294;2690
293;2692
292;2694
290;2696
290;2698
289;2700
288;2702
288;2704
287;2706
286;2708
286;2710
285;2712
285;2714
284;2716
284;2718
283;2720
283;2722
283;2724
282;2726
282;2728
281;2731
281;2733
281;2735
281;2737
280;2739
280;2741
279;2743
279;2745
279;2747
280;2749
279;2751
276;2753
279;2755
279;2757
279;2759
279;2761
279;2763
279;2765
279;2767
279;2769
279;2771
279;2774
279;2776
279;2778
280;2780
280;2782
280;2784
280;2786
281;2788
281;2790
280;2792
281;2794
281;2796
282;2798
280;2800
282;2802
282;2804
282;2806
282;2808
287;2810
283;2812
284;2814
284;2816
284;2818
284;2820
284;2822
285;2824
285;2826
285;2828
285;2830
286;2832
286;2834
286;2836
285;2838
285;2840
286;2842
287;2844
287;2846
287;2848
287;2850
287;2852
287;2854
287;2856
288;2859
288;2861
285;2863
289;2865
288;2867
289;2869
289;2871
288;2873
289;2875
289;2877
290;2879
289;2881
289;2883
290;2885
289;2887
290;2889
290;2891
290;2893
290;2895
290;2897
290;2899
291;2902
290;2904
291;2906
291;2908
289;2910
291;2912
291;2914
291;2916
291;2918
295;2920
292;2922
292;2924
291;2926
292;2928
291;2930
292;2932
291;2934
292;2936
292;2938
292;2940
292;2942
292;2944
292;2946
292;2948
291;2950
292;2952
292;2954
292;2956
292;2958
293;2960
292;2962
293;2964
292;2966
293;2968
293;2970
290;2972
292;2974
293;2976
293;2978
293;2980
293;2982
293;2984
293;2987
294;2989
293;2991
293;2993
294;2995
293;2997
294;2999
294;3001
294;3003
294;3005
293;3007
294;3009
293;3011
294;3013
294;3015
294;3017
293;3019
294;3021
293;3023
294;3025
293;3027
297;3030
294;3032
294;3034
294;3036
294;3038
294;3040
294;3042
294;3044
294;3046
294;3048
294;3050
294;3052
294;3054
295;3056
294;3058
294;3060
295;3062
295;3064
295;3066
295;3068
295;3070
295;3072
295;3074
295;3076
295;3078
295;3080
293;3082
295;3084
295;3086
295;3088
296;3090
299;3092
295;3094
295;3096
295;3098
296;3100
295;3102
296;3104
297;3106
297;3108
298;3110
298;3112
298;3115
298;3117
299;3119
299;3121
299;3123
300;3125
300;3127
300;3129
301;3131
301;3133
301;3135
301;3137
303;3139
301;3141
301;3143
301;3145
301;3147
300;3149
300;3151
300;3153
301;3155
301;3158
301;3160
301;3162
301;3164
300;3166
299;3168
300;3170
300;3172
299;3174
299;3176
298;3178
298;3180
298;3182
298;3184
298;3186
298;3188
297;3190
297;3192
296;3194
296;3196
296;3198
296;3200
301;3202
296;3204
296;3206
295;3208
295;3210
296;3212
295;3214
296;3216
295;3218
295;3220
295;3222
295;3224
295;3226
294;3228
295;3230
294;3232
295;3234
295;3236
295;3238
294;3240
294;3243
294;3245
293;3247
293;3249
291;3251
289;3253
288;3255
287;3257
285;3259
285;3261
285;3263
287;3265
290;3267
295;3269
300;3271
306;3273
315;3275
323;3277
331;3279
338;3281
342;3283
345;3286
344;3288
343;3290
340;3292
336;3294
333;3296
328;3298
324;3300
317;3302
312;3304
307;3306
302;3308
297;3310
294;3312
290;3314
284;3316
285;3318
283;3320
280;3322
279;3324
279;3326
279;3328
280;3330
280;3332
279;3334
281;3336
281;3338
282;3340
282;3342
283;3344
284;3346
284;3348
284;3350
286;3352
286;3354
286;3356
288;3358
288;3360
289;3362
289;3364
290;3366
290;3368
291;3371
291;3373
292;3375
293;3377
295;3379
293;3381
294;3383
295;3385
295;3387
295;3389
296;3391
297;3393
297;3395
297;3397
298;3399
298;3401
298;3403
299;3405
299;3407
300;3409
299;3411
300;3414
300;3416
301;3418
301;3420
302;3422
302;3424
298;3426
302;3428
302;3430
302;3432
302;3434
302;3436
303;3438
303;3440
304;3442
303;3444
304;3446
304;3448
304;3450
305;3452
305;3454
305;3456
305;3458
305;3460
306;3462
305;3464
306;3466
306;3468
306;3470
306;3472
307;3474
307;3476
307;3478
307;3480
307;3482
308;3484
308;3486
309;3488
308;3490
308;3492
309;3494
310;3496
309;3499
311;3501
311;3503
311;3505
312;3507
311;3509
312;3511
312;3513
314;3515
314;3517
315;3519
315;3521
315;3523
316;3525
316;3527
317;3529
318;3531
318;3533
315;3535
319;3537
320;3539
320;3542
320;3544
320;3546
321;3548
322;3550
322;3552
321;3554
322;3556
322;3558
322;3560
322;3562
322;3564
322;3566
322;3568
321;3570
321;3572
321;3574
320;3576
320;3578
319;3580
317;3582
318;3584
317;3586
316;3588
315;3590
314;3592
314;3594
313;3596
309;3598
309;3600
309;3602
308;3604
307;3606
306;3608
305;3610
304;3612
303;3614
301;3616
300;3618
299;3620
298;3622
297;3624
296;3627
296;3629
294;3631
293;3633
292;3635
291;3637
291;3639
290;3641
289;3643
285;3645
288;3647
286;3649
286;3651
285;3653
284;3655
285;3657
284;3659
283;3661
283;3663
282;3665
282;3667
282;3670
281;3672
281;3674
281;3676
280;3678
280;3680
280;3682
280;3684
279;3686
279;3688
279;3690
278;3692
279;3694
279;3696
279;3698
278;3700
281;3702
279;3704
279;3706
278;3708
278;3710
278;3712
279;3714
278;3716
278;3718
279;3720
279;3722
279;3724
279;3726
279;3728
280;3730
279;3732
280;3734
280;3736
280;3738
280;3740
281;3742
281;3744
281;3746
281;3748
282;3750
282;3752
280;3755
282;3757
283;3759
283;3761
283;3763
287;3765
284;3767
284;3769
284;3771
285;3773
285;3775
285;3777
285;3779
286;3781
286;3783
286;3785
286;3787
287;3789
286;3791
287;3793
287;3795
287;3798
288;3800
287;3802
288;3804
287;3806
288;3808
288;3810
290;3812
289;3814
289;3816
289;3818
289;3820
288;3822
289;3824
289;3826
289;3828
290;3830
290;3832
289;3834
290;3836
290;3838
290;3840
290;3842
290;3844
290;3846
291;3848
290;3850
291;3852
291;3854
291;3856
291;3858
291;3860
291;3862
289;3864
292;3866
291;3868
291;3870
291;3872
296;3874
292;3876
292;3878
292;3880
291;3883
292;3885
292;3887
293;3889
292;3891
293;3893
293;3895
292;3897
293;3899
292;3901
293;3903
293;3905
293;3907
293;3909
293;3911
292;3913
293;3915
293;3917
293;3919
294;3921
294;3923
293;3926
293;3928
293;3930
293;3932
294;3934
293;3936
293;3938
294;3940
294;3942
293;3944
294;3946
294;3948
294;3950
294;3952
294;3954
294;3956
295;3958
293;3960
294;3962
294;3964
293;3966
294;3968
294;3970
294;3972
294;3974
294;3976
294;3978
294;3980
294;3982
298;3984
295;3986
295;3988
295;3990
295;3992
295;3994
294;3996
294;3998
295;4000
295;4002
295;4004
295;4006
295;4008
294;4011
294;4013
294;4015
295;4017
295;4019
295;4021
296;4023
295;4025
296;4027
296;4029
297;4031
297;4033
297;4035
297;4037
297;4039
298;4041
299;4043
300;4045
300;4047
300;4049
301;4051
300;4054
300;4056
299;4058
300;4060
300;4062
300;4064
300;4066
300;4068
300;4070
299;4072
299;4074
299;4076
300;4078
300;4080
300;4082
299;4084
299;4086
298;4088
298;4090
298;4092
298;4094
298;4096
298;4098
297;4100
297;4102
297;4104
296;4106
296;4108
297;4110
296;4112
296;4114
296;4116
295;4118
296;4120
296;4122
295;4124
296;4126
296;4128
296;4130
295;4132
295;4134
294;4136
295;4139
295;4141
295;4143
295;4145
295;4147
295;4149
295;4151
295;4153
295;4155
295;4157
295;4159
295;4161
294;4163
293;4165
292;4167
290;4169
289;4171
287;4173
286;4175
285;4177
285;4179
286;4182
288;4184
291;4186
296;4188
302;4190
310;4192
318;4194
326;4196
332;4198
337;4200
340;4202
342;4204
341;4206
334;4208
335;4210
331;4212
328;4214
323;4216
316;4218
313;4220
308;4222
305;4224
299;4226
294;4228
289;4230
286;4232
284;4234
282;4236
280;4238
278;4240
276;4242
275;4244
275;4246
276;4248
277;4250
277;4252
278;4254
279;4256
280;4258
280;4260
281;4262
282;4264
283;4267
284;4269
282;4271
285;4273
285;4275
286;4277
287;4279
288;4281
289;4283
290;4285
291;4287
291;4289
292;4291
292;4293
293;4295
294;4297
294;4299
295;4301
296;4303
295;4305
296;4307
297;4310
298;4312
298;4314
299;4316
296;4318
299;4320
300;4322
300;4324
301;4326
301;4328
301;4330
302;4332
302;4334
302;4336
302;4338
303;4340
303;4342
304;4344
304;4346
304;4348
304;4350
304;4352
304;4354
305;4356
305;4358
305;4360
306;4362
306;4364
306;4366
306;4368
307;4370
307;4372
307;4374
307;4376
307;4378
305;4380
308;4382
308;4384
308;4386
309;4388
309;4390
309;4392
310;4395
310;4397
310;4399
310;4401
311;4403
311;4405
312;4407
312;4409
312;4411
313;4413
312;4415
314;4417
313;4419
314;4421
315;4423
315;4425
313;4427
316;4429
316;4431
317;4433
318;4435
322;4438
319;4440
319;4442
319;4444
320;4446
320;4448
321;4450
321;4452
322;4454
322;4456
323;4458
323;4460
323;4462
324;4464
323;4466
324;4468
325;4470
325;4472
324;4474
325;4476
325;4478
325;4480
324;4482
325;4484
324;4486
324;4488
320;4490
323;4492
322;4494
321;4496
321;4498
318;4500
319;4502
318;4504
317;4506
316;4508
315;4510
314;4512
312;4514
312;4516
311;4518
310;4520
308;4523
307;4525
306;4527
304;4529
303;4531
303;4533
302;4535
298;4537
300;4539
297;4541
297;4543
296;4545
299;4547
294;4549
293;4551
292;4553
291;4555
290;4557
289;4559
288;4561
288;4563
287;4566
286;4568
285;4570
285;4572
284;4574
283;4576
283;4578
283;4580
282;4582
281;4584
282;4586
281;4588
281;4590
280;4592
281;4594
280;4596
280;4598
280;4600
279;4602
279;4604
279;4606
279;4608
276;4610
279;4612
279;4614
279;4616
278;4618
278;4620
278;4622
278;4624
279;4626
279;4628
279;4630
279;4632
278;4634
279;4636
279;4638
279;4640
279;4642
279;4644
279;4646
279;4648
280;4651
280;4653
280;4655
283;4657
281;4659
281;4661
281;4663
281;4665
281;4667
282;4669
282;4671
283;4673
283;4675
283;4677
283;4679
283;4681
283;4683
283;4685
283;4687
284;4689
285;4691
285;4694
285;4696
285;4698
285;4700
285;4702
286;4704
286;4706
287;4708
286;4710
287;4712
287;4714
287;4716
287;4718
287;4720
288;4722
289;4724
288;4726
288;4728
288;4730
288;4732
289;4734
289;4736
289;4738
289;4740
289;4742
289;4744
289;4746
289;4748
289;4750
290;4752
290;4754
289;4756
289;4758
289;4760
290;4762
290;4764
292;4766
291;4768
291;4770
290;4772
291;4774
291;4776
291;4779
291;4781
291;4783
291;4785
292;4787
291;4789
291;4791
291;4793
291;4795
292;4797
292;4799
292;4801
292;4803
292;4805
292;4807
292;4809
292;4811
293;4813
293;4815
293;4817
293;4819
292;4822
292;4824
292;4826
292;4828
293;4830
293;4832
293;4834
293;4836
293;4838
293;4840
293;4842
293;4844
294;4846
294;4848
294;4850
294;4852
294;4854
294;4856
294;4858
294;4860
294;4862
294;4864
294;4866
293;4868
294;4870
294;4872
294;4874
295;4876
294;4878
295;4880
294;4882
294;4884
295;4886
296;4888
295;4890
296;4892
296;4894
297;4896
297;4898
297;4900
297;4902
298;4904
299;4907
299;4909
299;4911
300;4913
299;4915
300;4917
300;4919
300;4921
301;4923
301;4925
301;4927
300;4929
300;4931
300;4933
300;4935
300;4937
300;4939
300;4941
298;4943
299;4945
299;4947
300;4950
300;4952
299;4954
299;4956
299;4958
299;4960
298;4962
298;4964
297;4966
297;4968
297;4970
297;4972
297;4974
296;4976
296;4978
296;4980
296;4982
296;4984
296;4986
296;4988
293;4990
295;4992
295;4994
295;4996
294;4998
295;5000
295;5002
295;5004
295;5006
294;5008
295;5010
294;5012
294;5014
294;5016
295;5018
295;5020
295;5022
294;5024
294;5026
294;5028
294;5030
293;5032
292;5035
291;5037
290;5039
288;5041
287;5043
287;5045
286;5047
286;5049
288;5051
288;5053
295;5055
301;5057
307;5059
315;5061
324;5063
331;5065
337;5067
341;5069
342;5071
342;5073
340;5075
338;5078
335;5080
332;5082
328;5084
323;5086
318;5088
313;5090
308;5092
302;5094
298;5096
294;5098
288;5100
287;5102
285;5104
282;5106
281;5108
284;5110
279;5112
279;5114
279;5116
280;5118
279;5120
280;5122
281;5124
281;5126
283;5128
284;5130
285;5132
285;5134
286;5136
286;5138
287;5140
288;5142
289;5144
289;5146
289;5148
290;5150
291;5152
292;5154
293;5156
294;5158
294;5160
292;5163
295;5165
296;5167
296;5169
297;5171
296;5173
298;5175
298;5177
298;5179
299;5181
299;5183
300;5185
300;5187
301;5189
301;5191
302;5193
301;5195
302;5197
302;5199
303;5201
303;5203
303;5206
303;5208
302;5210
304;5212
304;5214
304;5216
304;5218
309;5220
305;5222
305;5224
305;5226
305;5228
306;5230
305;5232
306;5234
306;5236
306;5238
307;5240
306;5242
306;5244
308;5246
307;5248
308;5250
308;5252
308;5254
308;5256
308;5258
308;5260
309;5262
309;5264
309;5266
310;5268
310;5270
306;5272
310;5274
311;5276
311;5278
311;5280
308;5282
312;5284
312;5286
312;5288
313;5291
313;5293
313;5295
314;5297
315;5299
315;5301
316;5303
316;5305
316;5307
317;5309
318;5311
318;5313
319;5315
319;5317
318;5319
320;5321
320;5323
321;5325
321;5327
325;5329
322;5331
323;5334
322;5336
323;5338
322;5340
323;5342
323;5344
323;5346
323;5348
323;5350
322;5352
322;5354
321;5356
321;5358
321;5360
320;5362
320;5364
319;5366
318;5368
317;5370
316;5372
315;5374
315;5376
314;5378
313;5380
309;5382
310;5384
309;5386
308;5388
307;5390
309;5392
305;5394
304;5396
302;5398
301;5400
299;5402
299;5404
297;5406
297;5408
296;5410
295;5412
294;5414
292;5416
291;5419
291;5421
289;5423
289;5425
289;5427
287;5429
287;5431
286;5433
285;5435
285;5437
287;5439
284;5441
283;5443
282;5445
282;5447
281;5449
281;5451
281;5453
281;5455
280;5457
280;5459
280;5462
279;5464
279;5466
279;5468
278;5470
279;5472
279;5474
278;5476
278;5478
278;5480
278;5482
278;5484
278;5486
278;5488
278;5490
278;5492
278;5494
278;5496
278;5498
278;5500
279;5502
279;5504
279;5506
279;5508
279;5510
279;5512
280;5514
279;5516
280;5518
280;5520
280;5522
280;5524
281;5526
281;5528
280;5530
281;5532
281;5534
282;5536
281;5538
282;5540
282;5542
282;5544
282;5547
284;5549
284;5551
284;5553
284;5555
284;5557
284;5559
284;5561
285;5563
285;5565
285;5567
285;5569
285;5571
285;5573
286;5575
286;5577
286;5579
286;5581
287;5583
287;5585
287;5587
287;5590
287;5592
287;5594
288;5596
288;5598
288;5600
288;5602
288;5604
288;5606
288;5608
288;5610
289;5612
289;5614
288;5616
289;5618
290;5620
289;5622
290;5624
290;5626
290;5628
291;5630
290;5632
290;5634
290;5636
291;5638
291;5640
291;5642
291;5644
291;5646
291;5648
292;5650
292;5652
291;5654
291;5656
292;5658
292;5660
292;5662
292;5664
292;5666
292;5668
292;5670
292;5672
293;5675
293;5677
294;5679
293;5681
293;5683
293;5685
293;5687
293;5689
293;5691
294;5693
293;5695
293;5697
294;5699
293;5701
294;5703
294;5705
294;5707
294;5709
293;5711
294;5713
293;5715
294;5718
294;5720
294;5722
295;5724
291;5726
294;5728
294;5730
295;5732
294;5734
294;5736
295;5738
295;5740
295;5742
295;5744
295;5746
294;5748
295;5750
295;5752
295;5754
295;5756
295;5758
295;5760
295;5762
295;5764
295;5766
295;5768
296;5770
295;5772
295;5774
295;5776
295;5778
295;5780
295;5782
296;5784
296;5786
298;5788
295;5790
296;5792
296;5794
295;5796
296;5798
296;5800
297;5803
297;5805
297;5807
298;5809
297;5811
298;5813
299;5815
299;5817
299;5819
299;5821
299;5823
300;5825
301;5827
300;5829
301;5831
301;5833
298;5835
300;5837
301;5839
300;5841
300;5843
300;5846
301;5848
301;5850
300;5852
300;5854
300;5856
300;5858
300;5860
300;5862
300;5864
300;5866
299;5868
299;5870
299;5872
299;5874
298;5876
298;5878
298;5880
295;5882
297;5884
297;5886
297;5888
296;5890
296;5892
296;5894
296;5896
295;5898
296;5900
295;5902
295;5904
295;5906
296;5908
295;5910
295;5912
295;5914
294;5916
294;5918
295;5920
294;5922
295;5924
294;5926
294;5928
294;5931
294;5933
294;5935
294;5937
293;5939
293;5941
293;5943
288;5945
289;5947
289;5949
288;5951
287;5953
283;5955
286;5957
287;5959
288;5961
292;5963
297;5965
302;5967
309;5969
318;5971
326;5974
333;5976
339;5978
343;5980
344;5982
345;5984
342;5986
340;5988
336;5990
330;5992
327;5994
321;5996
316;5998
310;6000
308;6002
300;6004
296;6006
291;6008
288;6010
286;6012
284;6014
283;6016
281;6018
280;6020
280;6022
279;6024
280;6026
280;6028
281;6030
281;6032
282;6034
282;6036
283;6038
283;6040
284;6042
285;6044
286;6046
286;6048
287;6050
287;6052
285;6054
288;6056
288;6059
289;6061
290;6063
293;6065
291;6067
292;6069
293;6071
293;6073
294;6075
293;6077
294;6079
295;6081
295;6083
296;6085
295;6087
296;6089
297;6091
297;6093
298;6095
298;6097
298;6099
298;6102
299;6104
300;6106
299;6108
300;6110
302;6112
301;6114
301;6116
301;6118
301;6120
301;6122
301;6124
302;6126
302;6128
303;6130
303;6132
303;6134
303;6136
303;6138
303;6140
303;6142
304;6144
304;6146
304;6148
304;6150
304;6152
304;6154
304;6156
305;6158
305;6160
306;6162
304;6164
305;6166
306;6168
306;6170
307;6172
311;6174
307;6176
308;6178
307;6180
308;6182
308;6184
309;6187
309;6189
310;6191
310;6193
310;6195
310;6197
311;6199
312;6201
311;6203
312;6205
313;6207
314;6209
314;6211
314;6213
315;6215
315;6217
316;6219
318;6221
317;6223
318;6225
318;6227
318;6230
319;6232
320;6234
320;6236
321;6238
321;6240
322;6242
322;6244
322;6246
322;6248
322;6250
323;6252
323;6254
323;6256
324;6258
322;6260
323;6262
322;6264
322;6266
322;6268
322;6270
321;6272
320;6274
319;6276
319;6278
319;6280
318;6282
321;6284
316;6286
315;6288
314;6290
312;6292
312;6294
310;6296
309;6298
308;6300
307;6302
306;6304
305;6306
303;6308
302;6310
301;6312
300;6315
299;6317
298;6319
297;6321
296;6323
295;6325
294;6327
293;6329
293;6331
292;6333
291;6335
290;6337
289;6339
288;6341
288;6343
287;6345
287;6347
286;6349
286;6351
284;6353
284;6355
284;6358
283;6360
282;6362
282;6364
282;6366
281;6368
281;6370
281;6372
280;6374
280;6376
280;6378
280;6380
280;6382
279;6384
280;6386
279;6388
279;6390
279;6392
279;6394
279;6396
276;6398
279;6400
279;6402
279;6404
279;6406
279;6408
279;6410
279;6412
279;6414
279;6416
279;6418
279;6420
279;6422
279;6424
280;6426
280;6428
280;6430
280;6432
280;6434
281;6436
281;6438
282;6440
282;6443
282;6445
281;6447
282;6449
283;6451
282;6453
282;6455
283;6457
284;6459
285;6461
284;6463
284;6465
284;6467
285;6469
285;6471
285;6473
285;6475
286;6477
285;6479
286;6481
285;6483
286;6486
287;6488
287;6490
287;6492
287;6494
287;6496
287;6498
287;6500
288;6502
288;6504
288;6506
285;6508
288;6510
289;6512
288;6514
288;6516
288;6518
289;6520
289;6522
289;6524
289;6526
289;6528
290;6530
290;6532
289;6534
290;6536
290;6538
290;6540
291;6542
290;6544
290;6546
291;6548
291;6550
291;6552
291;6554
291;6556
291;6558
292;6560
292;6562
291;6564
292;6566
292;6568
291;6571
292;6573
291;6575
292;6577
292;6579
292;6581
293;6583
292;6585
293;6587
292;6589
293;6591
293;6593
292;6595
293;6597
293;6599
293;6601
293;6603
293;6605
293;6607
293;6609
293;6611
293;6614
294;6616
290;6618
293;6620
294;6622
293;6624
293;6626
290;6628
294;6630
294;6632
293;6634
294;6636
293;6638
294;6640
294;6642
294;6644
294;6646
294;6648
294;6650
294;6652
294;6654
294;6656
294;6658
294;6660
295;6662
295;6664
294;6666
295;6668
294;6670
294;6672
295;6674
295;6676
295;6678
293;6680
295;6682
295;6684
295;6686
295;6688
295;6690
295;6692
295;6694
296;6696
295;6699
295;6701
295;6703
295;6705
295;6707
295;6709
295;6711
296;6713
296;6715
296;6717
296;6719
297;6721
297;6723
297;6725
295;6727
298;6729
298;6731
298;6733
300;6735
301;6737
300;6739
301;6742
301;6744
301;6746
301;6748
301;6750
301;6752
302;6754
301;6756
301;6758
300;6760
301;6762
301;6764
301;6766
300;6768
301;6770
301;6772
300;6774
300;6776
299;6778
299;6780
299;6782
300;6784
299;6786
299;6788
295;6790
298;6792
297;6794
297;6796
297;6798
297;6800
297;6802
297;6804
297;6806
296;6808
296;6810
295;6812
296;6814
296;6816
296;6818
296;6820
296;6822
295;6824
295;6827
295;6829
295;6831
295;6833
295;6835
293;6837
295;6839
295;6841
295;6843
295;6845
299;6847
295;6849
295;6851
294;6853
294;6855
293;6857
292;6859
290;6861
289;6863
288;6865
287;6867
285;6870
285;6872
285;6874
286;6876
289;6878
293;6880
298;6882
304;6884
313;6886
321;6888
329;6890
335;6892
341;6894
341;6896
341;6898
339;6900
336;6902
331;6904
327;6906
323;6908
319;6910
315;6912
310;6914
304;6916
298;6918
294;6920
289;6922
285;6924
283;6926
281;6928
279;6930
276;6932
275;6934
274;6936
275;6938
275;6940
276;6942
276;6944
275;6946
277;6948
279;6950
279;6952
280;6955
286;6957
283;6959
284;6961
284;6963
285;6965
286;6967
287;6969
288;6971
288;6973
289;6975
290;6977
291;6979
292;6981
292;6983
293;6985
293;6987
295;6989
295;6991
295;6993
296;6995
297;6998
297;7000
298;7002
299;7004
299;7006
300;7008
300;7010
300;7012
301;7014
300;7016
301;7018
302;7020
302;7022
303;7024
303;7026
303;7028
303;7030
303;7032
304;7034
304;7036
304;7038
305;7040
304;7042
305;7044
305;7046
305;7048
305;7050
306;7052
306;7054
305;7056
307;7058
307;7060
308;7062
307;7064
311;7066
308;7068
308;7070
308;7072
308;7074
308;7076
309;7078
308;7080
309;7083
309;7085
310;7087
310;7089
310;7091
310;7093
310;7095
311;7097
311;7099
312;7101
311;7103
312;7105
313;7107
313;7109
313;7111
314;7113
314;7115
315;7117
315;7119
315;7121
315;7123
317;7126
316;7128
318;7130
318;7132
319;7134
319;7136
319;7138
320;7140
320;7142
321;7144
322;7146
322;7148
323;7150
323;7152
323;7154
323;7156
324;7158
325;7160
325;7162
325;7164
325;7166
325;7168
325;7170
325;7172
325;7174
327;7176
325;7178
325;7180
324;7182
324;7184
323;7186
322;7188
322;7190
322;7192
321;7194
320;7196
318;7198
317;7200
317;7202
316;7204
315;7206
314;7208
313;7211
311;7213
310;7215
309;7217
308;7219
306;7221
306;7223
304;7225
303;7227
302;7229
300;7231
300;7233
298;7235
298;7237
296;7239
295;7241
295;7243
294;7245
292;7247
292;7249
291;7251
289;7254
289;7256
288;7258
288;7260
287;7262
285;7264
285;7266
285;7268
285;7270
284;7272
283;7274
283;7276
282;7278
281;7280
281;7282
281;7284
281;7286
281;7288
277;7290
280;7292
279;7294
280;7296
279;7298
279;7300
279;7302
279;7304
279;7306
278;7308
278;7310
278;7312
278;7314
278;7316
279;7318
279;7320
279;7322
279;7324
279;7326
279;7328
279;7330
279;7332
279;7334
279;7336
280;7339
280;7341
280;7343
280;7345
279;7347
280;7349
281;7351
279;7353
280;7355
281;7357
281;7359
281;7361
281;7363
282;7365
282;7367
282;7369
283;7371
283;7373
283;7375
284;7377
284;7379
284;7382
284;7384
284;7386
284;7388
285;7390
285;7392
285;7394
285;7396
286;7398
283;7400
286;7402
286;7404
286;7406
285;7408
287;7410
287;7412
287;7414
287;7416
287;7418
287;7420
287;7422
287;7424
287;7426
288;7428
288;7430
288;7432
288;7434
288;7436
288;7438
288;7440
289;7442
289;7444
289;7446
288;7448
289;7450
289;7452
289;7454
289;7456
289;7458
290;7460
287;7462
290;7464
290;7467
289;7469
290;7471
289;7473
290;7475
291;7477
290;7479
290;7481
290;7483
291;7485
290;7487
291;7489
291;7491
291;7493
291;7495
291;7497
291;7499
291;7501
291;7503
291;7505
292;7507
289;7510
292;7512
291;7514
292;7516
291;7518
297;7520
292;7522
292;7524
291;7526
292;7528
292;7530
292;7532
292;7534
292;7536
293;7538
293;7540
292;7542
293;7544
292;7546
293;7548
292;7550
293;7552
293;7554
293;7556
293;7558
293;7560
293;7562
292;7564
294;7566
293;7568
293;7570
290;7572
293;7574
294;7576
293;7578
293;7580
292;7582
294;7584
294;7586
293;7588
294;7590
293;7592
294;7595
294;7597
294;7599
294;7601
294;7603
294;7605
294;7607
294;7609
294;7611
294;7613
295;7615
295;7617
293;7619
294;7621
294;7623
295;7625
295;7627
299;7629
295;7631
295;7633
295;7635
295;7638
294;7640
295;7642
294;7644
295;7646
295;7648
295;7650
295;7652
295;7654
295;7656
296;7658
296;7660
297;7662
297;7664
297;7666
297;7668
298;7670
298;7672
298;7674
300;7676
300;7678
300;7680
298;7682
300;7684
301;7686
301;7688
301;7690
298;7692
301;7694
301;7696
301;7698
300;7700
300;7702
301;7704
300;7706
301;7708
301;7710
301;7712
300;7714
300;7716
299;7718
300;7720
299;7723
299;7725
299;7727
297;7729
298;7731
298;7733
297;7735
298;7737
301;7739
297;7741
297;7743
296;7745
296;7747
296;7749
296;7751
296;7753
296;7755
296;7757
296;7759
295;7761
295;7763
295;7766
296;7768
295;7770
295;7772
295;7774
295;7776
295;7778
295;7780
295;7782
295;7784
295;7786
295;7788
295;7790
295;7792
294;7794
294;7796
293;7798
291;7800
290;7802
289;7804
289;7806
286;7808
285;7810
284;7812
284;7814
286;7816
289;7818
293;7820
297;7822
304;7824
312;7826
320;7828
327;7830
333;7832
339;7834
341;7836
340;7838
338;7840
336;7842
331;7844
327;7846
325;7848
319;7851
313;7853
307;7855
302;7857
296;7859
291;7861
287;7863
284;7865
282;7867
279;7869
277;7871
276;7873
274;7875
273;7877
273;7879
274;7881
275;7883
275;7885
277;7887
277;7889
278;7891
279;7894
280;7896
281;7898
282;7900
282;7902
283;7904
285;7906
285;7908
286;7910
287;7912
288;7914
289;7916
289;7918
290;7920
291;7922
292;7924
293;7926
294;7928
294;7930
294;7932
295;7934
295;7936
296;7938
296;7940
297;7942
298;7944
299;7946
299;7948
300;7950
299;7952
300;7954
301;7956
302;7958
302;7960
302;7962
302;7964
302;7966
303;7968
304;7970
303;7972
304;7974
304;7976
305;7979
304;7981
304;7983
305;7985
305;7987
305;7989
306;7991
306;7993
307;7995
307;7997
306;7999
307;8001
307;8003
307;8005
308;8007
308;8009
307;8011
308;8013
308;8015
308;8017
309;8019
309;8022
310;8024
307;8026
310;8028
310;8030
310;8032
310;8034
310;8036
311;8038
311;8040
311;8042
312;8044
312;8046
312;8048
313;8050
313;8052
314;8054
314;8056
314;8058
315;8060
316;8062
316;8064
315;8066
317;8068
317;8070
318;8072
318;8074
319;8076
319;8078
320;8080
320;8082
321;8084
321;8086
322;8088
321;8090
322;8092
323;8094
322;8096
323;8098
324;8100
324;8102
324;8104
324;8107
324;8109
324;8111
324;8113
325;8115
324;8117
324;8119
324;8121
323;8123
323;8125
322;8127
322;8129
321;8131
321;8133
317;8135
319;8137
318;8139
317;8141
316;8143
315;8145
314;8147
313;8150
312;8152
311;8154
310;8156
308;8158
308;8160
306;8162
305;8164
304;8166
303;8168
301;8170
300;8172
299;8174
298;8176
297;8178
296;8180
293;8182
293;8184
293;8186
292;8188
291;8190
291;8192
290;8194
289;8196
290;8198
287;8200
286;8202
286;8204
285;8206
285;8208
285;8210
284;8212
284;8214
283;8216
282;8218
282;8220
282;8222
282;8224
281;8226
281;8228
281;8230
280;8232
280;8235
279;8237
279;8239
280;8241
280;8243
276;8245
279;8247
279;8249
279;8251
279;8253
277;8255
280;8257
280;8259
280;8261
279;8263
279;8265
279;8267
280;8269
280;8271
280;8273
280;8275
280;8278
280;8280
280;8282
281;8284
281;8286
281;8288
281;8290
281;8292
282;8294
282;8296
282;8298
282;8300
287;8302
283;8304
284;8306
284;8308
284;8310
284;8312
284;8314
285;8316
285;8318
285;8320
285;8322
286;8324
286;8326
285;8328
286;8330
286;8332
286;8334
286;8336
287;8338
287;8340
287;8342
286;8344
286;8346
287;8348
287;8350
287;8352
284;8354
287;8356
287;8358
288;8360
288;8363
286;8365
288;8367
288;8369
288;8371
288;8373
288;8375
288;8377
288;8379
289;8381
289;8383
289;8385
289;8387
289;8389
289;8391
290;8393
290;8395
290;8397
290;8399
288;8401
290;8403
290;8406
290;8408
290;8410
293;8412
291;8414
291;8416
290;8418
291;8420
291;8422
291;8424
291;8426
291;8428
291;8430
291;8432
291;8434
291;8436
291;8438
292;8440
292;8442
292;8444
292;8446
292;8448
291;8450
291;8452
291;8454
291;8456
291;8458
292;8460
292;8462
290;8464
292;8466
292;8468
292;8470
292;8472
297;8474
293;8476
293;8478
293;8480
293;8482
293;8484
293;8486
293;8488
293;8491
293;8493
293;8495
293;8497
293;8499
293;8501
294;8503
294;8505
294;8507
294;8509
293;8511
294;8513
293;8515
293;8517
293;8519
295;8521
294;8523
294;8525
294;8527
294;8529
294;8531
294;8534
294;8536
295;8538
295;8540
296;8542
296;8544
296;8546
297;8548
297;8550
297;8552
298;8554
298;8556
298;8558
299;8560
299;8562
299;8564
300;8566
301;8568
301;8570
301;8572
300;8574
301;8576
301;8578
300;8580
300;8582
305;8584
301;8586
300;8588
300;8590
300;8592
300;8594
300;8596
299;8598
300;8600
299;8602
299;8604
299;8606
298;8608
298;8610
297;8612
297;8614
297;8616
297;8619
297;8621
296;8623
296;8625
295;8627
296;8629
297;8631
296;8633
296;8635
295;8637
295;8639
295;8641
295;8643
294;8645
295;8647
295;8649
295;8651
294;8653
294;8655
294;8657
294;8659
294;8662
294;8664
294;8666
294;8668
293;8670
294;8672
294;8674
294;8676
294;8678
293;8680
293;8682
291;8684
289;8686
288;8688
287;8690
286;8692
285;8694
284;8696
282;8698
284;8700
287;8702
289;8704
294;8706
300;8708
307;8710
315;8712
323;8714
331;8716
336;8718
340;8720
341;8722
340;8724
339;8726
335;8728
331;8730
328;8732
322;8734
317;8736
312;8738
307;8740
301;8742
296;8744
291;8747
287;8749
285;8751
281;8753
279;8755
278;8757
276;8759
276;8761
274;8763
274;8765
275;8767
275;8769
276;8771
277;8773
278;8775
279;8777
279;8779
281;8781
282;8783
281;8785
283;8787
284;8790
285;8792
285;8794
286;8796
287;8798
288;8800
288;8802
289;8804
290;8806
288;8808
291;8810
291;8812
293;8814
294;8816
294;8818
295;8820
295;8822
296;8824
297;8826
297;8828
297;8830
297;8832
298;8834
299;8836
299;8838
300;8840
299;8842
300;8844
301;8846
301;8848
302;8850
302;8852
302;8854
302;8856
302;8858
303;8860
303;8862
304;8864
304;8866
304;8868
305;8870
304;8872
305;8875
305;8877
305;8879
306;8881
306;8883
306;8885
306;8887
306;8889
306;8891
307;8893
307;8895
308;8897
308;8899
308;8901
308;8903
308;8905
308;8907
308;8909
309;8911
310;8913
310;8915
306;8918
310;8920
311;8922
311;8924
311;8926
309;8928
312;8930
313;8932
312;8934
313;8936
314;8938
313;8940
314;8942
315;8944
315;8946
316;8948
316;8950
316;8952
317;8954
317;8956
318;8958
319;8960
319;8962
320;8964
320;8966
320;8968
320;8970
321;8972
322;8974
322;8976
322;8978
321;8980
323;8982
323;8984
324;8986
323;8988
324;8990
325;8992
325;8994
324;8996
325;8998
324;9000
324;9003
324;9005
324;9007
323;9009
323;9011
322;9013
321;9015
321;9017
320;9019
319;9021
318;9023
318;9025
314;9027
316;9029
314;9031
313;9033
312;9035
310;9037
310;9039
309;9041
308;9043
306;9046
305;9048
304;9050
303;9052
302;9054
301;9056
300;9058
298;9060
297;9062
296;9064
295;9066
295;9068
294;9070
293;9072
290;9074
291;9076
290;9078
290;9080
288;9082
291;9084
288;9086
287;9088
284;9090
285;9092
285;9094
284;9096
284;9098
283;9100
283;9102
283;9104
283;9106
282;9108
282;9110
282;9112
281;9114
281;9116
281;9118
281;9120
280;9122
280;9124
280;9126
279;9128
279;9131
280;9133
280;9135
278;9137
279;9139
279;9141
280;9143
280;9145
283;9147
280;9149
280;9151
280;9153
280;9155
280;9157
280;9159
280;9161
281;9163
281;9165
281;9167
281;9169
281;9171
281;9174
281;9176
281;9178
282;9180
282;9182
282;9184
283;9186
283;9188
283;9190
283;9192
285;9194
284;9196
284;9198
284;9200
285;9202
284;9204
285;9206
285;9208
285;9210
286;9212
286;9214
286;9216
286;9218
286;9220
286;9222
286;9224
287;9226
287;9228
287;9230
287;9232
287;9234
287;9236
287;9238
288;9240
288;9242
288;9244
287;9246
288;9248
288;9250
288;9252
289;9254
293;9256
289;9259
289;9261
288;9263
289;9265
289;9267
289;9269
289;9271
289;9273
290;9275
290;9277
289;9279
289;9281
289;9283
289;9285
289;9287
290;9289
290;9291
289;9293
289;9295
290;9297
289;9299
290;9302
291;9304
290;9306
290;9308
290;9310
289;9312
290;9314
290;9316
289;9318
291;9320
290;9322
291;9324
290;9326
291;9328
290;9330
291;9332
291;9334
291;9336
291;9338
291;9340
292;9342
292;9344
292;9346
291;9348
291;9350
292;9352
292;9354
291;9356
291;9358
291;9360
292;9362
292;9364
295;9366
292;9368
293;9370
292;9372
292;9374
293;9376
293;9378
292;9380
293;9382
293;9384
293;9387
293;9389
293;9391
293;9393
293;9395
293;9397
293;9399
293;9401
294;9403
293;9405
293;9407
293;9409
293;9411
294;9413
294;9415
294;9417
293;9419
294;9421
294;9423
294;9425
294;9427
294;9430
295;9432
297;9434
296;9436
296;9438
296;9440
296;9442
296;9444
297;9446
297;9448
298;9450
298;9452
298;9454
299;9456
299;9458
300;9460
300;9462
300;9464
301;9466
300;9468
300;9470
300;9472
300;9474
302;9476
300;9478
300;9480
299;9482
299;9484
300;9486
300;9488
299;9490
300;9492
299;9494
299;9496
299;9498
298;9500
298;9502
298;9504
297;9506
298;9508
297;9510
297;9512
297;9515
296;9517
296;9519
296;9521
296;9523
296;9525
296;9527
295;9529
296;9531
295;9533
295;9535
295;9537
295;9539
295;9541
295;9543
294;9545
294;9547
294;9549
293;9551
293;9553
294;9555
294;9558
294;9560
294;9562
294;9564
293;9566
294;9568
294;9570
294;9572
294;9574
293;9576
291;9578
290;9580
289;9582
288;9584
287;9586
286;9588
282;9590
284;9592
284;9594
286;9596
290;9598
292;9600
298;9602
304;9604
313;9606
320;9608
328;9610
335;9612
339;9614
341;9616
342;9618
340;9620
337;9622
333;9624
329;9626
324;9628
319;9630
314;9632
309;9634
303;9636
297;9638
293;9640
289;9643
286;9645
283;9647
281;9649
279;9651
275;9653
275;9655
275;9657
275;9659
276;9661
276;9663
277;9665
278;9667
278;9669
279;9671
280;9673
281;9675
281;9677
283;9679
283;9681
284;9683
285;9686
286;9688
286;9690
287;9692
288;9694
289;9696
289;9698
287;9700
291;9702
291;9704
292;9706
293;9708
295;9710
294;9712
295;9714
295;9716
296;9718
297;9720
297;9722
297;9724
298;9726
298;9728
299;9730
299;9732
299;9734
299;9736
300;9738
301;9740
301;9742
302;9744
302;9746
301;9748
302;9750
302;9752
303;9754
304;9756
304;9758
304;9760
301;9762
304;9764
304;9766
305;9768
305;9771
305;9773
306;9775
306;9777
306;9779
306;9781
306;9783
306;9785
307;9787
307;9789
307;9791
308;9793
308;9795
308;9797
308;9799
309;9801
308;9803
309;9805
309;9807
308;9809
309;9811
309;9814
310;9816
311;9818
315;9820
311;9822
311;9824
311;9826
312;9828
312;9830
312;9832
313;9834
314;9836
314;9838
315;9840
315;9842
316;9844
316;9846
316;9848
317;9850
318;9852
318;9854
319;9856
319;9858
319;9860
320;9862
320;9864
321;9866
322;9868
322;9870
320;9872
322;9874
323;9876
323;9878
323;9880
322;9882
324;9884
325;9886
324;9888
325;9890
325;9892
325;9894
324;9896
324;9899
324;9901
324;9903
323;9905
323;9907
322;9909
321;9911
321;9913
320;9915
320;9917
316;9919
317;9921
316;9923
315;9925
314;9927
317;9929
312;9931
311;9933
309;9935
308;9937
308;9939
306;9942
305;9944
304;9946
303;9948
302;9950
301;9952
300;9954
299;9956
297;9958
296;9960
296;9962
295;9964
294;9966
292;9968
291;9970
291;9972
290;9974
290;9976
289;9978
288;9980
287;9982
287;9984
286;9986
286;9988
286;9990
284;9992
285;9994
284;9996
283;9998
283;10000
283;10002
282;10004
281;10006
282;10008
282;10010
282;10012
281;10014
281;10016
280;10018
280;10020
280;10022
280;10024
280;10027
279;10029
279;10031
280;10033
280;10035
280;10037
283;10039
280;10041
280;10043
280;10045
280;10047
280;10049
280;10051
281;10053
281;10055
281;10057
281;10059
281;10061
282;10063
282;10065
282;10067
282;10070
282;10072
283;10074
283;10076
282;10078
283;10080
283;10082
283;10084
284;10086
284;10088
284;10090
284;10092
284;10094
284;10096
285;10098
285;10100
286;10102
286;10104
287;10106
286;10108
286;10110
286;10112
286;10114
286;10116
287;10118
287;10120
288;10122
287;10124
287;10126
288;10128
288;10130
288;10132
288;10134
289;10136
288;10138
289;10140
288;10142
288;10144
289;10146
291;10148
289;10150
289;10152
289;10155
289;10157
290;10159
290;10161
290;10163
290;10165
290;10167
290;10169
290;10171
290;10173
290;10175
290;10177
290;10179
291;10181
291;10183
291;10185
291;10187
292;10189
292;10191
292;10193
292;10195
292;10198
292;10200
292;10202
292;10204
292;10206
292;10208
292;10210
292;10212
292;10214
292;10216
292;10218
291;10220
292;10222
292;10224
292;10226
292;10228
292;10230
292;10232
292;10234
293;10236
292;10238
292;10240
292;10242
293;10244
293;10246
293;10248
293;10250
293;10252
293;10254
293;10256
294;10258
293;10260
293;10262
293;10264
293;10266
293;10268
293;10270
293;10272
293;10274
293;10276
294;10278
293;10280
293;10283
293;10285
293;10287
293;10289
294;10291
294;10293
294;10295
294;10297
294;10299
294;10301
294;10303
294;10305
294;10307
294;10309
294;10311
294;10313
294;10315
294;10317
294;10319
294;10321
294;10323
293;10326
294;10328
294;10330
294;10332
294;10334
294;10336
295;10338
295;10340
295;10342
295;10344
295;10346
295;10348
295;10350
295;10352
295;10354
295;10356
295;10358
295;10360
295;10362
295;10364
295;10366
295;10368
295;10370
295;10372
295;10374
296;10376
296;10378
296;10380
296;10382
297;10384
297;10386
298;10388
297;10390
297;10392
297;10394
298;10396
298;10398
299;10400
300;10402
300;10404
300;10406
301;10408
301;10411
301;10413
301;10415
301;10417
301;10419
300;10421
300;10423
300;10425
300;10427
301;10429
301;10431
300;10433
297;10435
300;10437
299;10439
299;10441
299;10443
299;10445
299;10447
299;10449
299;10451
298;10454
297;10456
297;10458
297;10460
297;10462
297;10464
297;10466
296;10468
296;10470
296;10472
296;10474
296;10476
296;10478
296;10480
293;10482
296;10484
296;10486
295;10488
295;10490
299;10492
295;10494
295;10496
297;10498
295;10500
294;10502
295;10504
295;10506
294;10508
295;10510
295;10512
294;10514
294;10516
294;10518
294;10520
293;10522
292;10524
290;10526
289;10528
287;10530
286;10532
285;10534
284;10536
285;10539
286;10541
289;10543
291;10545
299;10547
306;10549
314;10551
323;10553
330;10555
336;10557
340;10559
342;10561
340;10563
338;10565
335;10567
332;10569
327;10571
323;10573
318;10575
312;10577
306;10579
301;10582
296;10584
291;10586
288;10588
285;10590
280;10592
279;10594
277;10596
276;10598
275;10600
279;10602
274;10604
275;10606
276;10608
276;10610
277;10612
278;10614
279;10616
279;10618
280;10620
281;10622
281;10624
282;10626
283;10628
284;10630
284;10632
286;10634
286;10636
287;10638
288;10640
289;10642
289;10644
290;10646
290;10648
291;10650
292;10652
289;10654
293;10656
294;10658
294;10660
294;10662
292;10664
296;10667
296;10669
297;10671
297;10673
297;10675
298;10677
299;10679
299;10681
300;10683
300;10685
300;10687
300;10689
300;10691
301;10693
301;10695
302;10697
302;10699
301;10701
303;10703
302;10705
303;10707
304;10710
307;10712
304;10714
304;10716
304;10718
304;10720
305;10722
305;10724
305;10726
306;10728
306;10730
306;10732
306;10734
306;10736
307;10738
307;10740
307;10742
308;10744
308;10746
308;10748
308;10750
308;10752
308;10754
308;10756
309;10758
309;10760
310;10762
308;10764
310;10766
310;10768
311;10770
311;10772
313;10774
312;10776
313;10778
313;10780
313;10782
314;10784
314;10786
315;10788
315;10790
316;10792
316;10795
317;10797
317;10799
317;10801
318;10803
319;10805
320;10807
320;10809
320;10811
321;10813
322;10815
322;10817
322;10819
325;10821
323;10823
324;10825
324;10827
323;10829
324;10831
324;10833
324;10835
325;10838
325;10840
324;10842
323;10844
324;10846
324;10848
323;10850
322;10852
322;10854
321;10856
320;10858
320;10860
319;10862
318;10864
317;10866
316;10868
315;10870
314;10872
313;10874
312;10876
311;10878
310;10880
309;10882
313;10884
307;10886
306;10888
304;10890
303;10892
302;10894
301;10896
300;10898
299;10900
298;10902
297;10904
295;10906
295;10908
294;10910
293;10912
292;10914
292;10916
291;10918
290;10920
289;10923
288;10925
287;10927
287;10929
288;10931
286;10933
286;10935
285;10937
284;10939
284;10941
283;10943
283;10945
283;10947
282;10949
282;10951
281;10953
281;10955
281;10957
280;10959
280;10961
281;10963
281;10966
281;10968
280;10970
279;10972
279;10974
279;10976
280;10978
280;10980
280;10982
280;10984
280;10986
279;10988
280;10990
280;10992
280;10994
281;10996
280;10998
280;11000
281;11002
281;11004
281;11006
281;11008
282;11010
282;11012
282;11014
282;11016
282;11018
283;11020
283;11022
283;11024
284;11026
284;11028
283;11030
284;11032
284;11034
284;11036
285;11038
286;11040
285;11042
286;11044
285;11046
285;11048
286;11051
286;11053
286;11055
287;11057
287;11059
287;11061
287;11063
287;11065
288;11067
288;11069
288;11071
288;11073
288;11075
288;11077
288;11079
288;11081
289;11083
289;11085
289;11087
290;11089
290;11091
289;11094
290;11096
290;11098
290;11100
290;11102
290;11104
290;11106
288;11108
290;11110
290;11112
290;11114
290;11116
290;11118
291;11120
291;11122
291;11124
291;11126
291;11128
291;11130
291;11132
291;11134
291;11136
292;11138
291;11140
291;11142
292;11144
292;11146
292;11148
292;11150
292;11152
292;11154
291;11156
292;11158
292;11160
292;11162
292;11164
292;11166
292;11168
294;11170
292;11172
292;11174
293;11176
293;11179
292;11181
293;11183
293;11185
293;11187
293;11189
293;11191
293;11193
293;11195
293;11197
293;11199
293;11201
293;11203
293;11205
293;11207
293;11209
294;11211
294;11213
294;11215
290;11217
294;11219
294;11222
293;11224
293;11226
294;11228
294;11230
294;11232
293;11234
294;11236
293;11238
294;11240
293;11242
294;11244
294;11246
295;11248
295;11250
295;11252
295;11254
296;11256
296;11258
296;11260
297;11262
297;11264
297;11266
297;11268
297;11270
298;11272
298;11274
299;11276
300;11278
300;11280
300;11282
300;11284
299;11286
299;11288
300;11290
300;11292
300;11294
300;11296
299;11298
299;11300
299;11302
299;11304
300;11307
300;11309
299;11311
299;11313
299;11315
299;11317
298;11319
298;11321
298;11323
298;11325
295;11327
297;11329
297;11331
296;11333
296;11335
293;11337
296;11339
296;11341
296;11343
296;11345
296;11347
295;11350
295;11352
295;11354
295;11356
295;11358
295;11360
295;11362
294;11364
294;11366
295;11368
294;11370
294;11372
293;11374
294;11376
294;11378
294;11380
294;11382
298;11384
294;11386
294;11388
293;11390
292;11392
292;11394
290;11396
289;11398
287;11400
286;11402
285;11404
284;11406
283;11408
285;11410
288;11412
292;11414
297;11416
303;11418
311;11420
319;11422
326;11424
331;11426
336;11428
337;11430
338;11432
336;11435
331;11437
330;11439
326;11441
322;11443
318;11445
313;11447
307;11449
302;11451
296;11453
291;11455
287;11457
283;11459
280;11461
279;11463
277;11465
275;11467
274;11469
272;11471
272;11473
273;11475
274;11478
275;11480
276;11482
276;11484
278;11486
279;11488
280;11490
280;11492
284;11494
283;11496
283;11498
284;11500
285;11502
286;11504
287;11506
288;11508
289;11510
290;11512
291;11514
291;11516
292;11518
292;11520
293;11522
294;11524
295;11526
295;11528
296;11530
297;11532
298;11534
298;11536
299;11538
300;11540
300;11542
300;11544
298;11546
301;11548
301;11550
302;11552
302;11554
306;11556
303;11558
303;11560
304;11563
304;11565
304;11567
305;11569
305;11571
305;11573
306;11575
306;11577
306;11579
306;11581
306;11583
307;11585
308;11587
308;11589
308;11591
308;11593
308;11595
308;11597
309;11599
309;11601
311;11603
310;11606
310;11608
310;11610
310;11612
310;11614
311;11616
311;11618
311;11620
311;11622
312;11624
312;11626
312;11628
312;11630
313;11632
313;11634
313;11636
314;11638
314;11640
314;11642
314;11644
315;11646
315;11648
315;11650
316;11652
317;11654
316;11656
317;11658
318;11660
319;11662
319;11664
324;11666
320;11668
321;11670
321;11672
322;11674
322;11676
323;11678
323;11680
324;11682
324;11684
325;11686
324;11688
325;11691
325;11693
325;11695
326;11697
326;11699
326;11701
326;11703
326;11705
326;11707
326;11709
325;11711
326;11713
325;11715
324;11717
324;11719
324;11721
322;11723
322;11725
321;11727
320;11729
319;11731
318;11734
317;11736
315;11738
314;11740
313;11742
312;11744
312;11746
311;11748
310;11750
307;11752
306;11754
305;11756
304;11758
303;11760
302;11762
301;11764
300;11766
298;11768
297;11770
296;11772
295;11774
298;11776
294;11778
293;11780
291;11782
291;11784
290;11786
289;11788
288;11790
288;11792
287;11794
286;11796
285;11798
285;11800
284;11802
284;11804
284;11806
283;11808
283;11810
282;11812
282;11814
281;11816
281;11819
281;11821
281;11823
281;11825
280;11827
280;11829
280;11831
280;11833
279;11835
279;11837
279;11839
279;11841
281;11843
279;11845
279;11847
279;11849
279;11851
279;11853
279;11855
279;11857
279;11859
279;11862
279;11864
279;11866
280;11868
280;11870
280;11872
280;11874
280;11876
280;11878
280;11880
280;11882
281;11884
282;11886
281;11888
278;11890
282;11892
282;11894
282;11896
283;11898
282;11900
283;11902
283;11904
283;11906
283;11908
284;11910
284;11912
284;11914
285;11916
285;11918
285;11920
286;11922
286;11924
286;11926
286;11928
286;11930
287;11932
287;11934
287;11936
287;11938
287;11940
287;11942
287;11944
287;11947
288;11949
288;11951
290;11953
288;11955
288;11957
288;11959
288;11961
288;11963
289;11965
289;11967
289;11969
289;11971
290;11973
290;11975
290;11977
290;11979
290;11981
290;11983
290;11985
290;11987
291;11990
291;11992
291;11994
291;11996
291;11998
288;12000
291;12002
291;12004
291;12006
291;12008
290;12010
292;12012
292;12014
291;12016
292;12018
292;12020
293;12022
292;12024
292;12026
293;12028
293;12030
293;12032
292;12034
292;12036
292;12038
292;12040
293;12042
293;12044
293;12046
294;12048
293;12050
293;12052
293;12054
293;12056
294;12058
294;12060
292;12062
294;12064
294;12066
294;12068
294;12070
294;12072
295;12075
295;12077
295;12079
295;12081
296;12083
296;12085
297;12087
297;12089
297;12091
298;12093
298;12095
298;12097
298;12099
299;12101
300;12103
300;12105
301;12107
299;12109
301;12111
301;12113
301;12115
301;12118
301;12120
302;12122
302;12124
301;12126
301;12128
301;12130
301;12132
301;12134
301;12136
301;12138
301;12140
300;12142
300;12144
300;12146
300;12148
299;12150
299;12152
299;12154
297;12156
298;12158
297;12160
297;12162
297;12164
296;12166
296;12168
296;12170
293;12172
295;12174
295;12176
295;12178
295;12180
295;12182
295;12184
295;12186
294;12188
294;12190
294;12192
294;12194
294;12196
294;12198
294;12200
293;12203
294;12205
294;12207
294;12209
293;12211
293;12213
293;12215
293;12217
290;12219
292;12221
292;12223
291;12225
291;12227
294;12229
289;12231
288;12233
286;12235
285;12237
284;12239
283;12241
283;12243
285;12246
288;12248
293;12250
297;12252
304;12254
312;12256
321;12258
327;12260
333;12262
337;12264
339;12266
339;12268
338;12270
336;12272
331;12274
330;12276
325;12278
321;12280
316;12282
310;12284
305;12286
302;12288
297;12290
292;12292
288;12294
285;12296
282;12298
280;12300
278;12302
275;12304
275;12306
274;12308
275;12310
275;12312
275;12314
277;12316
278;12318
278;12320
279;12322
280;12324
281;12326
280;12328
282;12331
284;12333
284;12335
285;12337
290;12339
287;12341
287;12343
288;12345
289;12347
290;12349
290;12351
292;12353
292;12355
292;12357
293;12359
294;12361
294;12363
295;12365
295;12367
296;12369
297;12371
297;12374
298;12376
298;12378
299;12380
299;12382
300;12384
301;12386
301;12388
301;12390
301;12392
302;12394
302;12396
303;12398
303;12400
303;12402
304;12404
304;12406
304;12408
304;12410
304;12412
305;12414
305;12416
306;12418
306;12420
306;12422
306;12424
306;12426
306;12428
306;12430
307;12432
308;12434
308;12436
306;12438
308;12440
308;12442
309;12444
309;12446
313;12448
309;12450
310;12452
309;12454
310;12456
310;12459
310;12461
311;12463
311;12465
311;12467
312;12469
312;12471
312;12473
312;12475
313;12477
314;12479
314;12481
315;12483
315;12485
315;12487
315;12489
316;12491
317;12493
317;12495
318;12497
318;12499
319;12502
319;12504
319;12506
320;12508
320;12510
321;12512
322;12514
323;12516
322;12518
323;12520
323;12522
324;12524
324;12526
325;12528
325;12530
325;12532
325;12534
325;12536
325;12538
325;12540
326;12542
325;12544
325;12546
323;12548
324;12550
324;12552
323;12554
323;12556
324;12558
322;12560
321;12562
320;12564
319;12566
317;12568
317;12570
315;12572
315;12574
314;12576
313;12578
311;12580
310;12582
309;12584
307;12587
306;12589
305;12591
304;12593
303;12595
302;12597
300;12599
300;12601
298;12603
298;12605
297;12607
296;12609
294;12611
293;12613
292;12615
291;12617
291;12619
290;12621
289;12623
291;12625
288;12627
287;12630
286;12632
285;12634
285;12636
285;12638
284;12640
283;12642
283;12644
282;12646
282;12648
282;12650
282;12652
281;12654
281;12656
280;12658
280;12660
280;12662
280;12664
280;12666
280;12668
280;12670
280;12672
279;12674
279;12676
280;12678
279;12680
279;12682
279;12684
279;12686
279;12688
279;12690
279;12692
279;12694
279;12696
279;12698
280;12700
280;12702
280;12704
280;12706
280;12708
280;12710
281;12712
281;12715
281;12717
281;12719
281;12721
281;12723
281;12725
281;12727
282;12729
283;12731
283;12733
282;12735
283;12737
283;12739
283;12741
283;12743
284;12745
285;12747
285;12749
286;12751
285;12753
285;12755
286;12758
286;12760
286;12762
286;12764
287;12766
287;12768
287;12770
287;12772
287;12774
287;12776
287;12778
288;12780
286;12782
288;12784
288;12786
288;12788
288;12790
285;12792
289;12794
289;12796
289;12798
288;12800
288;12802
289;12804
289;12806
289;12808
290;12810
289;12812
290;12814
290;12816
290;12818
290;12820
290;12822
290;12824
290;12826
290;12828
290;12830
290;12832
291;12834
290;12836
290;12838
291;12840
291;12843
288;12845
291;12847
291;12849
292;12851
291;12853
291;12855
292;12857
292;12859
292;12861
292;12863
292;12865
291;12867
292;12869
292;12871
292;12873
292;12875
292;12877
292;12879
292;12881
292;12883
292;12886
293;12888
293;12890
290;12892
292;12894
292;12896
293;12898
293;12900
296;12902
293;12904
293;12906
293;12908
293;12910
293;12912
293;12914
294;12916
293;12918
293;12920
293;12922
293;12924
293;12926
293;12928
293;12930
293;12932
294;12934
294;12936
295;12938
295;12940
295;12942
296;12944
296;12946
296;12948
297;12950
297;12952
295;12954
297;12956
298;12958
298;12960
299;12962
299;12964
300;12966
301;12968
301;12971
301;12973
301;12975
301;12977
301;12979
301;12981
301;12983
301;12985
300;12987
300;12989
300;12991
300;12993
300;12995
300;12997
300;12999
299;13001
299;13003
299;13005
299;13007
299;13009
303;13011
298;13014
298;13016
297;13018
297;13020
297;13022
296;13024
296;13026
296;13028
295;13030
296;13032
295;13034
295;13036
294;13038
294;13040
294;13042
294;13044
294;13046
293;13048
293;13050
293;13052
293;13054
294;13056
293;13058
293;13060
293;13062
289;13064
293;13066
293;13068
292;13070
292;13072
289;13074
292;13076
292;13078
292;13080
292;13082
292;13084
291;13086
291;13088
290;13090
289;13092
288;13094
287;13096
285;13099
284;13101
284;13103
284;13105
284;13107
286;13109
288;13111
294;13113
299;13115
307;13117
315;13119
327;13121
332;13123
338;13125
342;13127
343;13129
343;13131
341;13133
338;13135
335;13137
331;13139
327;13142
321;13144
316;13146
310;13148
304;13150
299;13152
295;13154
291;13156
287;13158
284;13160
282;13162
280;13164
279;13166
278;13168
277;13170
277;13172
277;13174
278;13176
277;13178
278;13180
279;13182
282;13184
280;13186
281;13188
281;13190
282;13192
283;13194
283;13196
284;13198
285;13200
285;13202
286;13204
286;13206
287;13208
288;13210
288;13212
289;13214
290;13216
291;13218
290;13220
291;13222
292;13224
292;13227
293;13229
296;13231
294;13233
295;13235
295;13237
295;13239
295;13241
296;13243
297;13245
297;13247
298;13249
298;13251
298;13253
298;13255
299;13257
299;13259
299;13261
300;13263
301;13265
301;13267
301;13270
301;13272
301;13274
301;13276
302;13278
303;13280
303;13282
303;13284
304;13286
303;13288
303;13290
304;13292
304;13294
304;13296
305;13298
304;13300
305;13302
305;13304
305;13306
305;13308
306;13310
306;13312
306;13314
306;13316
306;13318
307;13320
307;13322
308;13324
308;13326
308;13328
309;13330
308;13332
309;13334
309;13336
310;13338
311;13340
311;13342
311;13344
311;13346
311;13348
313;13350
313;13352
314;13355
314;13357
314;13359
315;13361
316;13363
316;13365
316;13367
317;13369
317;13371
318;13373
319;13375
319;13377
319;13379
320;13381
320;13383
321;13385
322;13387
322;13389
322;13391
321;13393
322;13395
323;13398
322;13400
323;13402
323;13404
323;13406
321;13408
322;13410
322;13412
322;13414
322;13416
321;13418
321;13420
320;13422
319;13424
318;13426
317;13428
317;13430
316;13432
315;13434
314;13436
313;13438
312;13440
311;13442
310;13444
309;13446
307;13448
307;13450
306;13452
305;13454
303;13456
302;13458
301;13460
300;13462
299;13464
298;13466
297;13468
297;13470
295;13472
293;13474
293;13476
292;13478
292;13480
291;13483
290;13485
289;13487
288;13489
287;13491
287;13493
286;13495
286;13497
285;13499
285;13501
284;13503
283;13505
283;13507
283;13509
282;13511
282;13513
282;13515
279;13517
281;13519
281;13521
280;13523
280;13526
281;13528
280;13530
280;13532
279;13534
279;13536
280;13538
280;13540
279;13542
280;13544
280;13546
279;13548
279;13550
279;13552
279;13554
279;13556
280;13558
280;13560
280;13562
278;13564
279;13566
280;13568
280;13570
280;13572
280;13574
281;13576
281;13578
283;13580
281;13582
281;13584
282;13586
282;13588
282;13590
282;13592
283;13594
283;13596
283;13598
283;13600
283;13602
283;13604
284;13606
284;13608
284;13611
284;13613
285;13615
285;13617
285;13619
285;13621
286;13623
286;13625
284;13627
286;13629
287;13631
287;13633
287;13635
285;13637
288;13639
288;13641
288;13643
288;13645
288;13647
289;13649
289;13651
289;13654
289;13656
289;13658
289;13660
290;13662
290;13664
289;13666
290;13668
290;13670
290;13672
288;13674
291;13676
290;13678
291;13680
291;13682
295;13684
291;13686
291;13688
291;13690
291;13692
291;13694
291;13696
292;13698
291;13700
292;13702
292;13704
292;13706
291;13708
292;13710
292;13712
291;13714
292;13716
293;13718
293;13720
292;13722
292;13724
293;13726
293;13728
293;13730
293;13732
293;13734
291;13736
292;13739
293;13741
293;13743
293;13745
290;13747
293;13749
294;13751
293;13753
293;13755
294;13757
294;13759
294;13761
294;13763
294;13765
294;13767
293;13769
294;13771
294;13773
294;13775
294;13777
295;13779
294;13782
293;13784
294;13786
294;13788
294;13790
294;13792
298;13794
295;13796
295;13798
295;13800
295;13802
294;13804
294;13806
294;13808
295;13810
295;13812
295;13814
294;13816
294;13818
295;13820
295;13822
295;13824
295;13826
295;13828
295;13830
295;13832
295;13834
295;13836
296;13838
296;13840
295;13842
295;13844
293;13846
295;13848
295;13850
295;13852
296;13854
299;13856
296;13858
296;13860
296;13862
296;13864
295;13867
296;13869
297;13871
297;13873
297;13875
298;13877
297;13879
297;13881
298;13883
299;13885
299;13887
300;13889
300;13891
300;13893
301;13895
301;13897
301;13899
301;13901
303;13903
301;13905
301;13907
301;13910
301;13912
300;13914
300;13916
301;13918
301;13920
301;13922
301;13924
300;13926
300;13928
300;13930
300;13932
299;13934
299;13936
299;13938
299;13940
299;13942
298;13944
297;13946
298;13948
298;13950
297;13952
297;13954
295;13956
297;13958
296;13960
297;13962
296;13964
301;13966
296;13968
296;13970
295;13972
295;13974
296;13976
295;13978
295;13980
295;13982
295;13984
295;13986
295;13988
295;13990
294;13992
295;13995
294;13997
295;13999
295;14001
294;14003
295;14005
294;14007
294;14009
293;14011
293;14013
291;14015
290;14017
288;14019
287;14021
285;14023
285;14025
286;14027
288;14029
290;14031
295;14033
300;14035
307;14038
315;14040
324;14042
331;14044
339;14046
343;14048
345;14050
344;14052
343;14054
339;14056
336;14058
332;14060
328;14062
323;14064
317;14066
312;14068
305;14070
300;14072
296;14074
293;14076
290;14078
288;14080
285;14082
283;14084
281;14086
280;14088
278;14090
279;14092
279;14094
280;14096
279;14098
280;14100
281;14102
282;14104
283;14106
283;14108
284;14110
284;14112
285;14114
285;14116
286;14118
287;14120
288;14123
288;14125
289;14127
290;14129
290;14131
291;14133
291;14135
292;14137
293;14139
293;14141
295;14143
294;14145
295;14147
295;14149
296;14151
296;14153
297;14155
297;14157
298;14159
297;14161
298;14163
298;14166
299;14168
299;14170
300;14172
300;14174
300;14176
301;14178
301;14180
301;14182
302;14184
302;14186
302;14188
300;14190
302;14192
302;14194
303;14196
303;14198
303;14200
304;14202
304;14204
304;14206
304;14208
304;14210
305;14212
305;14214
305;14216
305;14218
306;14220
306;14222
306;14224
305;14226
306;14228
306;14230
307;14232
307;14234
308;14236
307;14238
308;14240
308;14242
308;14244
308;14246
309;14248
309;14251
311;14253
309;14255
310;14257
310;14259
310;14261
311;14263
312;14265
312;14267
313;14269
313;14271
313;14273
313;14275
314;14277
315;14279
315;14281
316;14283
316;14285
316;14287
317;14289
317;14291
318;14294
319;14296
320;14298
316;14300
320;14302
321;14304
321;14306
322;14308
320;14310
323;14312
323;14314
323;14316
323;14318
323;14320
324;14322
324;14324
324;14326
324;14328
324;14330
323;14332
323;14334
322;14336
322;14338
322;14340
321;14342
321;14344
320;14346
319;14348
318;14350
317;14352
317;14354
316;14356
315;14358
314;14360
312;14362
312;14364
310;14366
309;14368
308;14370
307;14372
306;14374
305;14376
304;14379
302;14381
301;14383
300;14385
300;14387
298;14389
298;14391
297;14393
295;14395
294;14397
294;14399
293;14401
292;14403
291;14405
291;14407
287;14409
289;14411
288;14413
288;14415
287;14417
283;14419
286;14422
286;14424
285;14426
284;14428
283;14430
283;14432
283;14434
283;14436
283;14438
283;14440
282;14442
281;14444
282;14446
282;14448
282;14450
281;14452
281;14454
280;14456
280;14458
280;14460
281;14462
280;14464
280;14466
281;14468
281;14470
278;14472
280;14474
280;14476
281;14478
281;14480
281;14482
281;14484
281;14486
281;14488
281;14490
281;14492
281;14494
281;14496
282;14498
282;14500
282;14502
281;14504
282;14507
282;14509
282;14511
283;14513
283;14515
283;14517
281;14519
283;14521
283;14523
283;14525
284;14527
287;14529
285;14531
285;14533
285;14535
286;14537
286;14539
286;14541
286;14543
287;14545
287;14547
287;14550
287;14552
287;14554
287;14556
287;14558
287;14560
288;14562
288;14564
287;14566
288;14568
288;14570
288;14572
289;14574
291;14576
289;14578
289;14580
289;14582
289;14584
290;14586
290;14588
290;14590
290;14592
290;14594
290;14596
291;14598
290;14600
290;14602
291;14604
291;14606
291;14608
291;14610
291;14612
291;14614
292;14616
292;14618
292;14620
292;14622
292;14624
292;14626
290;14628
291;14630
291;14632
292;14635
291;14637
297;14639
292;14641
293;14643
292;14645
293;14647
293;14649
292;14651
293;14653
293;14655
293;14657
293;14659
292;14661
292;14663
293;14665
293;14667
293;14669
293;14671
293;14673
293;14675
293;14678
293;14680
294;14682
293;14684
295;14686
294;14688
294;14690
294;14692
294;14694
294;14696
294;14698
294;14700
294;14702
294;14704
294;14706
294;14708
294;14710
294;14712
294;14714
294;14716
295;14718
295;14720
295;14722
294;14724
295;14726
295;14728
295;14730
294;14732
295;14734
295;14736
294;14738
295;14740
294;14742
294;14744
294;14746
299;14748
295;14750
295;14752
296;14754
295;14756
296;14758
295;14760
295;14763
295;14765
295;14767
296;14769
295;14771
295;14773
295;14775
296;14777
296;14779
296;14781
296;14783
296;14785
296;14787
296;14789
296;14791
296;14793
296;14795
296;14797
296;14799
295;14801
295;14803
295;14806
295;14808
295;14810
296;14812
296;14814
297;14816
295;14818
295;14820
295;14822
296;14824
296;14826
296;14828
296;14830
296;14832
295;14834
296;14836
295;14838
296;14840
296;14842
296;14844
296;14846
295;14848
296;14850
296;14852
296;14854
296;14856
299;14858
297;14860
296;14862
296;14864
296;14866
296;14868
297;14870
296;14872
297;14874
297;14876
297;14878
296;14880
296;14882
296;14884
297;14886
297;14888
298;14891
298;14893
299;14895
299;14897
299;14899
299;14901
300;14903
300;14905
300;14907
301;14909
301;14911
301;14913
301;14915
301;14917
301;14919
302;14921
302;14923
303;14925
301;14927
301;14929
301;14931
301;14934
301;14936
301;14938
301;14940
301;14942
300;14944
301;14946
300;14948
300;14950
300;14952
300;14954
300;14956
298;14958
298;14960
298;14962
298;14964
298;14966
298;14968
298;14970
294;14972
297;14974
297;14976
296;14978
297;14980
296;14982
296;14984
296;14986
296;14988
296;14990
296;14992
296;14994
295;14996
296;14998
296;15000
295;15002
295;15004
295;15006
296;15008
295;15010
295;15012
295;15014
295;15016
295;15019
295;15021
295;15023
294;15025
294;15027
294;15029
293;15031
292;15033
289;15035
289;15037
288;15039
287;15041
285;15043
285;15045
286;15047
288;15049
292;15051
295;15053
302;15055
309;15057
317;15059
326;15062
333;15064
339;15066
342;15068
343;15070
342;15072
340;15074
336;15076
333;15078
329;15080
320;15082
319;15084
312;15086
307;15088
302;15090
294;15092
293;15094
290;15096
286;15098
284;15100
282;15102
281;15104
279;15106
278;15108
277;15110
278;15112
278;15114
278;15116
279;15118
279;15120
279;15122
281;15124
281;15126
282;15128
283;15130
283;15132
284;15134
285;15136
286;15138
287;15140
287;15142
285;15144
288;15147
289;15149
290;15151
290;15153
290;15155
291;15157
292;15159
292;15161
294;15163
294;15165
294;15167
295;15169
295;15171
296;15173
296;15175
296;15177
297;15179
297;15181
297;15183
298;15185
299;15187
299;15190
298;15192
300;15194
300;15196
301;15198
300;15200
304;15202
302;15204
302;15206
302;15208
302;15210
302;15212
302;15214
303;15216
303;15218
303;15220
304;15222
303;15224
304;15226
304;15228
304;15230
304;15232
305;15234
305;15236
305;15238
305;15240
306;15242
305;15244
305;15246
306;15248
306;15250
306;15252
303;15254
307;15256
307;15258
307;15260
307;15262
308;15264
308;15266
308;15268
308;15270
309;15272
309;15275
309;15277
310;15279
310;15281
311;15283
311;15285
311;15287
312;15289
312;15291
312;15293
313;15295
314;15297
314;15299
312;15301
315;15303
316;15305
316;15307
317;15309
322;15311
318;15313
318;15315
319;15318
319;15320
319;15322
320;15324
320;15326
321;15328
321;15330
322;15332
322;15334
322;15336
323;15338
322;15340
322;15342
323;15344
323;15346
323;15348
322;15350
322;15352
322;15354
322;15356
323;15358
322;15360
321;15362
317;15364
320;15366
319;15368
318;15370
317;15372
314;15374
316;15376
315;15378
314;15380
312;15382
312;15384
311;15386
309;15388
309;15390
307;15392
306;15394
305;15396
304;15398
302;15400
301;15403
300;15405
300;15407
299;15409
296;15411
297;15413
296;15415
294;15417
293;15419
297;15421
292;15423
291;15425
290;15427
290;15429
289;15431
288;15433
287;15435
287;15437
286;15439
286;15441
285;15443
284;15446
283;15448
284;15450
283;15452
283;15454
282;15456
282;15458
282;15460
281;15462
281;15464
281;15466
281;15468
281;15470
280;15472
280;15474
280;15476
279;15478
280;15480
280;15482
280;15484
280;15486
280;15488
280;15490
280;15492
280;15494
280;15496
279;15498
280;15500
280;15502
280;15504
280;15506
280;15508
280;15510
280;15512
280;15514
281;15516
281;15518
280;15520
282;15522
282;15524
282;15526
282;15528
285;15531
283;15533
283;15535
283;15537
283;15539
283;15541
283;15543
283;15545
284;15547
285;15549
285;15551
285;15553
285;15555
285;15557
286;15559
286;15561
286;15563
287;15565
287;15567
287;15569
286;15571
287;15574
287;15576
288;15578
288;15580
288;15582
288;15584
288;15586
288;15588
288;15590
288;15592
289;15594
289;15596
291;15598
289;15600
289;15602
289;15604
289;15606
289;15608
290;15610
290;15612
289;15614
289;15616
290;15618
290;15620
290;15622
290;15624
290;15626
290;15628
289;15630
291;15632
291;15634
291;15636
290;15638
292;15640
291;15642
291;15644
290;15646
291;15648
291;15650
291;15652
292;15654
291;15656
291;15659
291;15661
291;15663
292;15665
291;15667
291;15669
292;15671
292;15673
292;15675
292;15677
291;15679
291;15681
291;15683
292;15685
292;15687
292;15689
292;15691
292;15693
292;15695
292;15697
292;15699
292;15702
293;15704
293;15706
292;15708
292;15710
292;15712
292;15714
293;15716
292;15718
293;15720
293;15722
293;15724
293;15726
293;15728
293;15730
293;15732
293;15734
293;15736
293;15738
293;15740
293;15742
293;15744
293;15746
293;15748
294;15750
294;15752
294;15754
293;15756
294;15758
294;15760
294;15762
294;15764
294;15766
295;15768
294;15770
293;15772
294;15774
294;15776
294;15778
294;15780
295;15782
295;15784
295;15787
294;15789
294;15791
294;15793
294;15795
295;15797
295;15799
295;15801
295;15803
294;15805
294;15807
295;15809
295;15811
295;15813
295;15815
293;15817
295;15819
295;15821
295;15823
296;15825
296;15827
297;15830
297;15832
297;15834
297;15836
297;15838
298;15840
298;15842
299;15844
299;15846
299;15848
300;15850
300;15852
299;15854
300;15856
300;15858
301;15860
301;15862
298;15864
300;15866
300;15868
300;15870
300;15872
300;15874
300;15876
300;15878
302;15880
300;15882
300;15884
300;15886
299;15888
299;15890
299;15892
299;15894
298;15896
298;15898
298;15900
297;15902
297;15904
297;15906
296;15908
296;15910
295;15912
295;15915
295;15917
295;15919
295;15921
295;15923
295;15925
292;15927
295;15929
295;15931
294;15933
294;15935
294;15937
295;15939
294;15941
294;15943
294;15945
294;15947
294;15949
293;15951
294;15953
294;15955
294;15958
294;15960
294;15962
293;15964
293;15966
292;15968
290;15970
289;15972
285;15974
286;15976
285;15978
283;15980
283;15982
289;15984
286;15986
290;15988
294;15990
300;15992
308;15994
317;15996
324;15998
327;16000
334;16002
337;16004
339;16006
338;16008
336;16010
334;16012
329;16014
326;16016
322;16018
317;16020
311;16022
306;16024
301;16026
296;16028
290;16030
286;16032
283;16034
278;16036
277;16038
275;16040
274;16043
273;16045
270;16047
273;16049
273;16051
274;16053
275;16055
275;16057
276;16059
277;16061
279;16063
279;16065
280;16067
281;16069
282;16071
283;16073
283;16075
284;16077
286;16079
287;16081
286;16083
288;16086
289;16088
290;16090
290;16092
295;16094
292;16096
293;16098
293;16100
294;16102
294;16104
295;16106
296;16108
297;16110
297;16112
298;16114
298;16116
298;16118
299;16120
299;16122
300;16124
300;16126
301;16128
301;16130
301;16132
301;16134
302;16136
302;16138
302;16140
303;16142
303;16144
301;16146
303;16148
304;16150
304;16152
305;16154
304;16156
305;16158
305;16160
305;16162
305;16164
306;16166
306;16168
307;16171
307;16173
307;16175
307;16177
307;16179
308;16181
308;16183
308;16185
308;16187
309;16189
309;16191
308;16193
309;16195
309;16197
310;16199
310;16201
313;16203
311;16205
311;16207
311;16209
312;16211
311;16214
312;16216
313;16218
313;16220
313;16222
314;16224
314;16226
314;16228
316;16230
315;16232
316;16234
317;16236
317;16238
318;16240
319;16242
319;16244
319;16246
320;16248
321;16250
321;16252
322;16254
320;16256
323;16258
322;16260
323;16262
324;16264
328;16266
324;16268
325;16270
324;16272
325;16274
326;16276
325;16278
325;16280
325;16282
325;16284
325;16286
325;16288
325;16290
323;16292
323;16294
323;16296
323;16299
322;16301
320;16303
320;16305
319;16307
318;16309
317;16311
318;16313
315;16315
314;16317
313;16319
311;16321
311;16323
310;16325
308;16327
308;16329
306;16331
305;16333
303;16335
302;16337
301;16339
300;16342
299;16344
298;16346
297;16348
295;16350
295;16352
294;16354
292;16356
291;16358
291;16360
291;16362
290;16364
288;16366
288;16368
287;16370
287;16372
286;16374
286;16376
285;16378
285;16380
283;16382
283;16384
283;16386
283;16388
282;16390
282;16392
282;16394
281;16396
281;16398
280;16400
280;16402
279;16404
279;16406
280;16408
279;16410
279;16412
279;16414
279;16416
279;16418
279;16420
280;16422
279;16424
279;16427
279;16429
279;16431
279;16433
279;16435
279;16437
279;16439
280;16441
280;16443
279;16445
279;16447
280;16449
280;16451
280;16453
281;16455
281;16457
281;16459
281;16461
281;16463
282;16465
282;16467
282;16470
283;16472
283;16474
283;16476
283;16478
284;16480
284;16482
283;16484
284;16486
284;16488
283;16490
285;16492
285;16494
285;16496
285;16498
285;16500
286;16502
286;16504
286;16506
286;16508
286;16510
287;16512
287;16514
287;16516
288;16518
288;16520
288;16522
288;16524
288;16526
288;16528
288;16530
289;16532
289;16534
289;16536
288;16538
289;16540
289;16542
289;16544
289;16546
290;16548
290;16550
291;16552
290;16555
290;16557
290;16559
290;16561
290;16563
291;16565
291;16567
291;16569
291;16571
291;16573
291;16575
291;16577
291;16579
291;16581
291;16583
291;16585
291;16587
291;16589
291;16591
291;16593
292;16595
292;16598
289;16600
291;16602
292;16604
292;16606
292;16608
292;16610
292;16612
292;16614
292;16616
292;16618
292;16620
292;16622
292;16624
292;16626
293;16628
293;16630
292;16632
292;16634
292;16636
293;16638
293;16640
293;16642
293;16644
293;16646
293;16648
293;16650
294;16652
294;16654
293;16656
294;16658
294;16660
295;16662
294;16664
294;16666
294;16668
294;16670
293;16672
295;16674
294;16676
295;16678
294;16680
294;16683
295;16685
295;16687
296;16689
296;16691
296;16693
296;16695
297;16697
297;16699
298;16701
298;16703
298;16705
299;16707
296;16709
300;16711
300;16713
300;16715
301;16717
300;16719
301;16721
301;16723
301;16726
301;16728
300;16730
300;16732
300;16734
301;16736
301;16738
301;16740
300;16742
301;16744
300;16746
300;16748
299;16750
300;16752
299;16754
297;16756
298;16758
299;16760
298;16762
298;16764
302;16766
298;16768
297;16770
298;16772
297;16774
296;16776
296;16778
296;16780
295;16782
296;16784
296;16786
295;16788
295;16790
295;16792
295;16794
295;16796
295;16798
295;16800
294;16802
294;16804
294;16806
294;16808
294;16811
294;16813
294;16815
294;16817
290;16819
293;16821
294;16823
294;16825
293;16827
291;16829
293;16831
292;16833
290;16835
289;16837
287;16839
286;16841
285;16843
285;16845
285;16847
286;16849
289;16851
292;16854
298;16856
305;16858
313;16860
321;16862
329;16864
332;16866
337;16868
340;16870
340;16872
339;16874
340;16876
333;16878
330;16880
325;16882
321;16884
315;16886
310;16888
305;16890
300;16892
295;16894
292;16896
288;16898
285;16900
282;16902
280;16904
278;16906
277;16908
276;16910
275;16912
275;16914
275;16916
276;16918
277;16920
278;16922
279;16924
280;16926
277;16928
281;16930
282;16932
283;16934
283;16936
283;16939
286;16941
286;16943
287;16945
288;16947
289;16949
290;16951
290;16953
291;16955
292;16957
293;16959
293;16961
294;16963
294;16965
295;16967
296;16969
296;16971
297;16973
297;16975
298;16977
298;16979
299;16982
300;16984
303;16986
300;16988
301;16990
301;16992
302;16994
302;16996
302;16998
302;17000
303;17002
303;17004
304;17006
304;17008
304;17010
304;17012
305;17014
305;17016
305;17018
306;17020
306;17022
306;17024
306;17026
306;17028
306;17030
307;17032
307;17034
307;17036
305;17038
307;17040
307;17042
308;17044
307;17046
312;17048
309;17050
309;17052
309;17054
309;17056
309;17058
310;17060
310;17062
310;17064
311;17067
311;17069
311;17071
311;17073
312;17075
312;17077
312;17079
313;17081
313;17083
313;17085
314;17087
314;17089
315;17091
315;17093
318;17095
317;17097
317;17099
317;17101
318;17103
319;17105
319;17107
319;17110
320;17112
321;17114
321;17116
322;17118
322;17120
322;17122
323;17124
323;17126
324;17128
324;17130
325;17132
324;17134
325;17136
325;17138
325;17140
326;17142
326;17144
326;17146
325;17148
325;17150
325;17152
325;17154
324;17156
329;17158
324;17160
323;17162
322;17164
321;17166
321;17168
320;17170
319;17172
318;17174
317;17176
316;17178
314;17180
313;17182
313;17184
311;17186
310;17188
309;17190
308;17192
306;17195
305;17197
304;17199
303;17201
302;17203
302;17205
300;17207
299;17209
298;17211
297;17213
296;17215
294;17217
293;17219
293;17221
292;17223
291;17225
290;17227
289;17229
288;17231
288;17233
287;17235
287;17238
286;17240
286;17242
285;17244
284;17246
284;17248
283;17250
283;17252
283;17254
282;17256
281;17258
281;17260
282;17262
281;17264
281;17266
281;17268
281;17270
278;17272
279;17274
279;17276
279;17278
279;17280
279;17282
279;17284
280;17286
280;17288
279;17290
280;17292
280;17294
279;17296
280;17298
280;17300
280;17302
280;17304
280;17306
280;17308
280;17310
280;17312
281;17314
281;17316
281;17318
281;17320
281;17323
282;17325
282;17327
283;17329
283;17331
283;17333
284;17335
284;17337
283;17339
283;17341
284;17343
285;17345
285;17347
285;17349
285;17351
286;17353
285;17355
286;17357
286;17359
287;17361
287;17363
287;17366
287;17368
287;17370
287;17372
287;17374
287;17376
288;17378
288;17380
286;17382
288;17384
288;17386
288;17388
288;17390
289;17392
289;17394
289;17396
289;17398
290;17400
289;17402
289;17404
290;17406
290;17408
290;17410
290;17412
290;17414
289;17416
290;17418
290;17420
290;17422
291;17424
291;17426
291;17428
291;17430
291;17432
291;17434
291;17436
291;17438
291;17440
292;17442
294;17444
292;17446
292;17448
292;17451
292;17453
292;17455
292;17457
292;17459
293;17461
292;17463
292;17465
292;17467
292;17469
293;17471
293;17473
293;17475
292;17477
292;17479
292;17481
293;17483
293;17485
293;17487
293;17489
290;17491
293;17494
293;17496
293;17498
293;17500
292;17502
294;17504
294;17506
293;17508
293;17510
293;17512
294;17514
294;17516
294;17518
294;17520
294;17522
294;17524
294;17526
294;17528
294;17530
294;17532
294;17534
294;17536
294;17538
295;17540
295;17542
294;17544
294;17546
294;17548
295;17550
295;17552
294;17554
295;17556
294;17558
294;17560
294;17562
296;17564
295;17566
295;17568
295;17570
296;17572
296;17574
296;17576
296;17579
296;17581
297;17583
297;17585
297;17587
298;17589
298;17591
298;17593
298;17595
299;17597
299;17599
297;17601
299;17603
299;17605
300;17607
301;17609
298;17611
301;17613
302;17615
302;17617
302;17619
302;17622
301;17624
302;17626
301;17628
301;17630
301;17632
301;17634
300;17636
300;17638
300;17640
300;17642
300;17644
300;17646
299;17648
299;17650
299;17652
299;17654
298;17656
302;17658
298;17660
298;17662
295;17664
297;17666
297;17668
296;17670
296;17672
296;17674
296;17676
296;17678
296;17680
295;17682
295;17684
295;17686
295;17688
295;17690
295;17692
295;17694
294;17696
294;17698
293;17700
294;17702
294;17704
294;17707
294;17709
292;17711
294;17713
294;17715
294;17717
293;17719
297;17721
294;17723
293;17725
292;17727
291;17729
289;17731
288;17733
287;17735
286;17737
286;17739
285;17741
285;17743
287;17745
290;17747
294;17750
300;17752
308;17754
316;17756
324;17758
332;17760
337;17762
341;17764
344;17766
345;17768
341;17770
338;17772
334;17774
331;17776
325;17778
321;17780
315;17782
310;17784
304;17786
299;17788
294;17790
293;17792
289;17794
286;17796
284;17798
282;17800
279;17802
278;17804
277;17806
277;17808
277;17810
278;17812
278;17814
279;17816
280;17818
278;17820
281;17822
282;17824
283;17826
283;17828
289;17830
285;17832
285;17835
286;17837
286;17839
288;17841
288;17843
289;17845
290;17847
290;17849
291;17851
292;17853
292;17855
293;17857
294;17859
294;17861
295;17863
295;17865
296;17867
296;17869
296;17871
297;17873
297;17875
299;17878
299;17880
299;17882
299;17884
300;17886
300;17888
300;17890
301;17892
301;17894
301;17896
302;17898
302;17900
301;17902
302;17904
302;17906
303;17908
303;17910
304;17912
304;17914
303;17916
304;17918
304;17920
304;17922
304;17924
305;17926
305;17928
304;17930
305;17932
306;17934
306;17936
306;17938
310;17940
307;17942
307;17944
306;17946
307;17948
307;17950
307;17952
308;17954
308;17956
308;17958
309;17960
309;17963
309;17965
309;17967
310;17969
310;17971
311;17973
311;17975
312;17977
312;17979
312;17981
312;17983
313;17985
314;17987
314;17989
314;17991
315;17993
315;17995
315;17997
316;17999
317;18001
318;18003
319;18006
319;18008
320;18010
320;18012
320;18014
321;18016
321;18018
322;18020
322;18022
323;18024
323;18026
323;18028
324;18030
323;18032
324;18034
324;18036
325;18038
324;18040
324;18042
324;18044
324;18046
323;18048
327;18050
324;18052
323;18054
322;18056
322;18058
321;18060
320;18062
320;18064
319;18066
318;18068
317;18070
316;18072
315;18074
314;18076
313;18078
311;18080
311;18082
310;18084
309;18086
308;18088
306;18091
305;18093
304;18095
303;18097
302;18099
301;18101
299;18103
299;18105
298;18107
297;18109
296;18111
295;18113
294;18115
295;18117
291;18119
291;18121
290;18123
290;18125
288;18127
288;18129
288;18131
287;18134
286;18136
285;18138
285;18140
284;18142
285;18144
284;18146
283;18148
283;18150
282;18152
281;18154
281;18156
281;18158
281;18160
281;18162
278;18164
280;18166
280;18168
280;18170
279;18172
278;18174
280;18176
280;18178
280;18180
279;18182
279;18184
279;18186
279;18188
280;18190
280;18192
280;18194
279;18196
279;18198
279;18200
280;18202
280;18204
280;18206
281;18208
281;18210
281;18212
281;18214
281;18216
281;18219
281;18221
282;18223
282;18225
283;18227
282;18229
283;18231
283;18233
284;18235
283;18237
284;18239
284;18241
285;18243
284;18245
284;18247
285;18249
285;18251
286;18253
286;18255
286;18257
286;18259
286;18262
286;18264
287;18266
287;18268
287;18270
288;18272
284;18274
288;18276
288;18278
288;18280
288;18282
285;18284
289;18286
289;18288
289;18290
289;18292
289;18294
289;18296
289;18298
290;18300
290;18302
290;18304
290;18306
290;18308
290;18310
290;18312
290;18314
291;18316
291;18318
291;18320
291;18322
291;18324
291;18326
291;18328
291;18330
291;18332
292;18334
290;18336
292;18338
291;18340
292;18342
292;18344
292;18347
292;18349
292;18351
293;18353
292;18355
292;18357
292;18359
292;18361
293;18363
293;18365
293;18367
292;18369
292;18371
292;18373
292;18375
292;18377
293;18379
293;18381
290;18383
293;18385
293;18387
293;18390
293;18392
293;18394
293;18396
293;18398
293;18400
293;18402
294;18404
294;18406
294;18408
294;18410
294;18412
294;18414
293;18416
293;18418
294;18420
294;18422
293;18424
294;18426
294;18428
292;18430
294;18432
293;18434
293;18436
294;18438
293;18440
294;18442
294;18444
292;18446
294;18448
294;18450
294;18452
294;18454
294;18456
294;18458
294;18460
294;18462
294;18464
294;18466
294;18468
294;18470
295;18472
294;18475
294;18477
294;18479
294;18481
294;18483
294;18485
294;18487
295;18489
295;18491
292;18493
295;18495
295;18497
295;18499
295;18501
299;18503
295;18505
295;18507
295;18509
295;18511
295;18513
295;18515
295;18518
295;18520
295;18522
295;18524
295;18526
295;18528
296;18530
296;18532
297;18534
297;18536
298;18538
296;18540
297;18542
298;18544
298;18546
299;18548
301;18550
300;18552
301;18554
301;18556
301;18558
301;18560
300;18562
300;18564
300;18566
301;18568
301;18570
301;18572
300;18574
300;18576
300;18578
300;18580
300;18582
300;18584
300;18586
299;18588
299;18590
299;18592
299;18594
298;18596
299;18598
298;18600
296;18603
297;18605
297;18607
298;18609
297;18611
301;18613
296;18615
296;18617
295;18619
295;18621
295;18623
295;18625
295;18627
295;18629
295;18631
295;18633
295;18635
295;18637
295;18639
295;18641
294;18643
295;18646
295;18648
294;18650
294;18652
294;18654
294;18656
294;18658
295;18660
294;18662
295;18664
293;18666
293;18668
292;18670
292;18672
290;18674
289;18676
288;18678
287;18680
285;18682
284;18684
285;18686
285;18688
287;18690
291;18692
296;18694
303;18696
310;18698
318;18700
327;18702
333;18704
339;18706
342;18708
343;18710
340;18712
340;18714
336;18716
332;18718
328;18720
327;18722
318;18724
312;18726
306;18728
301;18731
296;18733
292;18735
289;18737
286;18739
283;18741
281;18743
279;18745
277;18747
277;18749
277;18751
277;18753
277;18755
278;18757
279;18759
279;18761
279;18763
281;18765
281;18767
282;18769
283;18771
284;18774
283;18776
284;18778
285;18780
285;18782
287;18784
288;18786
288;18788
290;18790
289;18792
289;18794
290;18796
291;18798
292;18800
293;18802
293;18804
294;18806
294;18808
295;18810
295;18812
296;18814
295;18816
296;18818
297;18820
296;18822
297;18824
297;18826
298;18828
298;18830
301;18832
299;18834
300;18836
299;18838
300;18840
301;18842
301;18844
301;18846
302;18848
302;18850
302;18852
302;18854
302;18856
302;18859
302;18861
303;18863
303;18865
303;18867
303;18869
303;18871
304;18873
304;18875
304;18877
305;18879
305;18881
305;18883
305;18885
305;18887
305;18889
305;18891
306;18893
306;18895
307;18897
309;18899
307;18902
307;18904
307;18906
307;18908
307;18910
308;18912
309;18914
309;18916
310;18918
309;18920
310;18922
310;18924
311;18926
311;18928
312;18930
312;18932
313;18934
313;18936
314;18938
314;18940
315;18942
315;18944
316;18946
316;18948
317;18950
317;18952
317;18954
318;18956
319;18958
319;18960
320;18962
320;18964
320;18966
321;18968
321;18970
321;18972
323;18974
323;18976
323;18978
322;18980
323;18982
323;18984
323;18987
323;18989
323;18991
323;18993
322;18995
322;18997
321;18999
321;19001
320;19003
320;19005
319;19007
317;19009
317;19011
316;19013
315;19015
314;19017
313;19019
312;19021
311;19023
310;19025
309;19027
308;19030
307;19032
306;19034
305;19036
303;19038
303;19040
301;19042
300;19044
299;19046
297;19048
297;19050
296;19052
295;19054
292;19056
292;19058
292;19060
291;19062
290;19064
287;19066
289;19068
288;19070
288;19072
287;19074
286;19076
285;19078
284;19080
284;19082
284;19084
283;19086
283;19088
282;19090
282;19092
281;19094
281;19096
281;19098
281;19100
281;19102
280;19104
279;19106
279;19108
279;19110
279;19112
279;19115
279;19117
277;19119
279;19121
278;19123
278;19125
278;19127
279;19129
279;19131
279;19133
279;19135
279;19137
279;19139
279;19141
279;19143
279;19145
279;19147
279;19149
279;19151
279;19153
279;19155
280;19158
280;19160
280;19162
281;19164
278;19166
281;19168
281;19170
281;19172
282;19174
285;19176
282;19178
283;19180
283;19182
283;19184
283;19186
284;19188
284;19190
284;19192
285;19194
285;19196
285;19198
285;19200
285;19202
285;19204
286;19206
286;19208
286;19210
287;19212
286;19214
287;19216
287;19218
287;19220
287;19222
288;19224
288;19226
286;19228
288;19230
288;19232
289;19234
288;19236
289;19238
289;19240
289;19243
289;19245
289;19247
289;19249
289;19251
289;19253
290;19255
290;19257
290;19259
289;19261
290;19263
290;19265
290;19267
290;19269
291;19271
291;19273
288;19275
291;19277
291;19279
291;19281
292;19283
296;19286
292;19288
292;19290
291;19292
291;19294
291;19296
291;19298
291;19300
292;19302
292;19304
292;19306
291;19308
292;19310
292;19312
293;19314
292;19316
293;19318
293;19320
292;19322
292;19324
292;19326
292;19328
293;19330
293;19332
293;19334
293;19336
290;19338
293;19340
293;19342
293;19344
293;19346
291;19348
294;19350
294;19352
293;19354
294;19356
293;19358
293;19360
293;19362
294;19364
294;19366
294;19368
293;19371
294;19373
293;19375
293;19377
293;19379
295;19381
294;19383
293;19385
294;19387
294;19389
294;19391
294;19393
299;19395
295;19397
295;19399
295;19401
295;19403
295;19405
296;19407
295;19409
295;19411
295;19414
295;19416
295;19418
295;19420
295;19422
296;19424
296;19426
296;19428
296;19430
295;19432
296;19434
296;19436
295;19438
295;19440
297;19442
296;19444
296;19446
296;19448
296;19450
295;19452
296;19454
296;19456
295;19458
296;19460
296;19462
296;19464
296;19466
296;19468
297;19470
298;19472
298;19474
298;19476
298;19478
299;19480
299;19482
300;19484
299;19486
300;19488
300;19490
301;19492
300;19494
302;19496
302;19499
302;19501
302;19503
305;19505
302;19507
302;19509
302;19511
302;19513
302;19515
302;19517
302;19519
302;19521
302;19523
302;19525
302;19527
302;19529
301;19531
301;19533
300;19535
300;19537
300;19539
299;19542
300;19544
300;19546
299;19548
298;19550
299;19552
298;19554
298;19556
297;19558
297;19560
297;19562
297;19564
297;19566
297;19568
297;19570
299;19572
297;19574
296;19576
296;19578
296;19580
296;19582
297;19584
297;19586
296;19588
296;19590
296;19592
296;19594
296;19596
296;19598
296;19600
296;19602
295;19604
295;19606
295;19608
295;19610
294;19612
295;19614
291;19616
290;19618
289;19620
287;19622
286;19624
286;19627
286;19629
289;19631
293;19633
297;19635
303;19637
311;19639
319;19641
327;19643
334;19645
339;19647
342;19649
342;19651
342;19653
338;19655
335;19657
332;19659
327;19661
323;19663
318;19665
312;19667
307;19670
301;19672
296;19674
292;19676
288;19678
285;19680
283;19682
281;19684
279;19686
277;19688
276;19690
276;19692
277;19694
277;19696
277;19698
278;19700
279;19702
279;19704
281;19706
282;19708
283;19710
283;19712
283;19714
284;19716
285;19718
286;19720
287;19722
289;19724
289;19726
290;19728
289;19730
290;19732
291;19734
292;19736
293;19738
294;19740
294;19742
295;19744
295;19746
296;19748
296;19750
297;19752
298;19755
298;19757
299;19759
300;19761
299;19763
299;19765
300;19767
301;19769
302;19771
302;19773
302;19775
302;19777
302;19779
303;19781
303;19783
303;19785
304;19787
304;19789
302;19791
304;19793
304;19795
305;19798
305;19800
306;19802
306;19804
306;19806
306;19808
307;19810
307;19812
307;19814
307;19816
307;19818
308;19820
308;19822
308;19824
308;19826
308;19828
308;19830
308;19832
309;19834
309;19836
307;19838
309;19840
309;19842
310;19844
309;19846
310;19848
311;19850
311;19852
313;19854
312;19856
312;19858
312;19860
312;19862
313;19864
314;19866
314;19868
314;19870
315;19872
315;19874
316;19876
317;19878
317;19880
318;19883
318;19885
318;19887
319;19889
320;19891
319;19893
320;19895
321;19897
322;19899
319;19901
322;19903
323;19905
323;19907
324;19909
324;19911
325;19913
325;19915
325;19917
325;19919
326;19921
325;19923
326;19926
326;19928
326;19930
326;19932
325;19934
325;19936
324;19938
324;19940
323;19942
323;19944
322;19946
319;19948
320;19950
320;19952
319;19954
318;19956
322;19958
316;19960
315;19962
314;19964
312;19966
311;19968
311;19970
309;19972
309;19974
307;19976
306;19978
305;19980
303;19982
302;19984
301;19986
300;19988
299;19990
298;19992
297;19994
296;19996
295;19998
294;20000
293;20002
292;20004
292;20006
291;20008
287;20011
289;20013
288;20015
288;20017
287;20019
284;20021
286;20023
286;20025
285;20027
285;20029
284;20031
284;20033
283;20035
283;20037
282;20039
282;20041
281;20043
281;20045
281;20047
281;20049
281;20051
281;20054
281;20056
279;20058
280;20060
280;20062
280;20064
280;20066
284;20068
280;20070
280;20072
279;20074
280;20076
280;20078
280;20080
280;20082
280;20084
280;20086
280;20088
280;20090
280;20092
281;20094
280;20096
280;20098
281;20100
281;20102
281;20104
281;20106
282;20108
282;20110
282;20112
282;20114
283;20116
283;20118
281;20120
283;20122
283;20124
283;20126
284;20128
283;20130
284;20132
284;20134
284;20136
285;20139
285;20141
285;20143
285;20145
286;20147
286;20149
286;20151
285;20153
286;20155
286;20157
287;20159
287;20161
287;20163
287;20165
286;20167
287;20169
287;20171
288;20173
287;20175
291;20177
288;20179
288;20182
288;20184
288;20186
288;20188
288;20190
289;20192
289;20194
289;20196
289;20198
289;20200
289;20202
289;20204
289;20206
289;20208
290;20210
290;20212
289;20214
290;20216
289;20218
290;20220
290;20222
290;20224
291;20226
291;20228
289;20230
290;20232
290;20234
291;20236
292;20238
295;20240
291;20242
291;20244
291;20246
291;20248
291;20250
291;20252
291;20254
292;20256
292;20258
292;20260
291;20262
292;20264
292;20267
292;20269
292;20271
293;20273
293;20275
292;20277
292;20279
292;20281
292;20283
292;20285
294;20287
293;20289
293;20291
292;20293
293;20295
293;20297
293;20299
293;20301
293;20303
293;20305
293;20307
293;20310
293;20312
293;20314
294;20316
293;20318
294;20320
294;20322
294;20324
294;20326
293;20328
294;20330
294;20332
294;20334
294;20336
294;20338
294;20340
294;20342
294;20344
294;20346
294;20348
294;20350
294;20352
294;20354
294;20356
295;20358
294;20360
294;20362
294;20364
295;20366
295;20368
295;20370
294;20372
295;20374
295;20376
294;20378
294;20380
295;20382
295;20384
294;20386
295;20388
295;20390
294;20392
295;20395
296;20397
295;20399
296;20401
295;20403
296;20405
297;20407
297;20409
297;20411
297;20413
298;20415
298;20417
298;20419
299;20421
300;20423
299;20425
300;20427
300;20429
301;20431
301;20433
301;20435
300;20438
301;20440
300;20442
300;20444
300;20446
300;20448
300;20450
300;20452
300;20454
300;20456
299;20458
300;20460
300;20462
297;20464
298;20466
298;20468
298;20470
298;20472
298;20474
298;20476
297;20478
297;20480
297;20482
296;20484
296;20486
296;20488
296;20490
296;20492
296;20494
296;20496
295;20498
295;20500
295;20502
295;20504
295;20506
295;20508
295;20510
293;20512
293;20514
293;20516
293;20518
294;20520
294;20523
294;20525
295;20527
294;20529
294;20531
293;20533
293;20535
293;20537
293;20539
293;20541
292;20543
290;20545
289;20547
288;20549
287;20551
285;20553
284;20555
284;20557
284;20559
286;20561
288;20563
293;20566
299;20568
306;20570
314;20572
319;20574
330;20576
336;20578
340;20580
341;20582
340;20584
338;20586
335;20588
331;20590
327;20592
321;20594
316;20596
311;20598
306;20600
300;20602
295;20604
290;20606
289;20608
285;20610
282;20612
279;20614
278;20616
276;20618
275;20620
274;20622
274;20624
274;20626
275;20628
276;20630
277;20632
278;20634
280;20636
279;20638
279;20640
280;20642
281;20644
282;20646
283;20648
284;20651
285;20653
285;20655
286;20657
287;20659
287;20661
289;20663
289;20665
290;20667
291;20669
292;20671
292;20673
293;20675
293;20677
294;20679
295;20681
292;20683
296;20685
295;20687
296;20689
297;20691
296;20694
298;20696
299;20698
299;20700
299;20702
299;20704
299;20706
300;20708
301;20710
301;20712
301;20714
302;20716
302;20718
302;20720
302;20722
303;20724
303;20726
303;20728
302;20730
304;20732
304;20734
304;20736
304;20738
304;20740
305;20742
305;20744
304;20746
305;20748
305;20750
306;20752
306;20754
306;20756
307;20758
307;20760
307;20762
307;20764
307;20766
307;20768
307;20770
308;20772
309;20774
309;20776
309;20779
309;20781
309;20783
310;20785
310;20787
310;20789
311;20791
308;20793
311;20795
311;20797
312;20799
312;20801
311;20803
314;20805
314;20807
315;20809
315;20811
316;20813
316;20815
317;20817
317;20819
318;20822
318;20824
318;20826
319;20828
320;20830
320;20832
321;20834
322;20836
322;20838
321;20840
322;20842
322;20844
323;20846
323;20848
327;20850
324;20852
324;20854
324;20856
324;20858
324;20860
323;20862
324;20864
323;20866
323;20868
323;20870
322;20872
321;20874
320;20876
320;20878
319;20880
319;20882
318;20884
317;20886
315;20888
313;20890
313;20892
312;20894
311;20896
310;20898
309;20900
305;20902
306;20904
305;20907
303;20909
303;20911
305;20913
301;20915
299;20917
298;20919
297;20921
296;20923
295;20925
293;20927
293;20929
292;20931
291;20933
289;20935
289;20937
288;20939
288;20941
287;20943
287;20945
286;20947
285;20950
284;20952
284;20954
283;20956
283;20958
284;20960
282;20962
281;20964
281;20966
281;20968
280;20970
279;20972
279;20974
279;20976
279;20978
279;20980
279;20982
278;20984
278;20986
278;20988
278;20990
278;20992
278;20994
278;20996
277;20998
277;21000
278;21002
278;21004
277;21006
278;21008
278;21010
277;21012
278;21014
279;21016
278;21018
279;21020
283;21022
279;21024
279;21026
279;21028
280;21030
280;21032
279;21035
280;21037
280;21039
280;21041
281;21043
280;21045
281;21047
281;21049
281;21051
282;21053
282;21055
282;21057
281;21059
283;21061
283;21063
283;21065
283;21067
285;21069
284;21071
284;21073
284;21075
284;21078
284;21080
284;21082
285;21084
286;21086
286;21088
286;21090
285;21092
286;21094
286;21096
286;21098
286;21100
287;21102
287;21104
287;21106
287;21108
287;21110
287;21112
288;21114
288;21116
288;21118
288;21120
287;21122
288;21124
288;21126
288;21128
289;21130
292;21132
289;21134
289;21136
289;21138
289;21140
289;21142
289;21144
289;21146
289;21148
289;21150
290;21152
290;21154
290;21156
289;21158
290;21160
290;21163
290;21165
290;21167
290;21169
290;21171
290;21173
290;21175
291;21177
291;21179
291;21181
291;21183
291;21185
291;21187
291;21189
291;21191
291;21193
292;21195
292;21197
293;21199
291;21201
291;21203
291;21206
291;21208
291;21210
292;21212
292;21214
292;21216
292;21218
292;21220
292;21222
292;21224
293;21226
293;21228
293;21230
292;21232
293;21234
293;21236
292;21238
293;21240
293;21242
293;21244
291;21246
293;21248
293;21250
293;21252
293;21254
293;21256
294;21258
293;21260
294;21262
293;21264
293;21266
293;21268
293;21270
293;21272
294;21274
294;21276
294;21278
294;21280
294;21282
294;21284
294;21286
294;21288
294;21291
295;21293
294;21295
294;21297
294;21299
294;21301
294;21303
295;21305
295;21307
296;21309
294;21311
295;21313
295;21315
295;21317
296;21319
296;21321
297;21323
297;21325
297;21327
297;21329
297;21331
298;21334
298;21336
299;21338
299;21340
299;21342
300;21344
300;21346
300;21348
300;21350
301;21352
301;21354
298;21356
300;21358
300;21360
300;21362
300;21364
298;21366
300;21368
300;21370
300;21372
300;21374
300;21376
300;21378
300;21380
299;21382
299;21384
299;21386
299;21388
299;21390
298;21392
298;21394
298;21396
298;21398
297;21400
297;21402
297;21404
296;21406
296;21408
296;21410
295;21412
296;21414
296;21416
294;21419
295;21421
296;21423
296;21425
295;21427
295;21429
295;21431
295;21433
295;21435
294;21437
295;21439
294;21441
294;21443
295;21445
295;21447
295;21449
295;21451
294;21453
294;21455
294;21457
294;21459
293;21462
291;21464
287;21466
288;21468
287;21470
285;21472
285;21474
282;21476
285;21478
288;21480
291;21482
295;21484
302;21486
310;21488
318;21490
326;21492
333;21494
337;21496
339;21498
339;21500
338;21502
337;21504
334;21506
331;21508
326;21510
322;21512
317;21514
312;21516
306;21518
300;21520
295;21522
290;21524
287;21526
281;21528
281;21530
278;21532
276;21534
275;21536
273;21538
273;21540
273;21542
274;21544
275;21547
276;21549
276;21551
277;21553
278;21555
279;21557
280;21559
281;21561
282;21563
283;21565
283;21567
284;21569
286;21571
286;21573
284;21575
288;21577
288;21579
289;21581
290;21583
295;21585
292;21587
293;21590
293;21592
293;21594
295;21596
296;21598
296;21600
297;21602
298;21604
298;21606
298;21608
299;21610
299;21612
299;21614
300;21616
301;21618
301;21620
301;21622
301;21624
302;21626
302;21628
303;21630
303;21632
303;21634
304;21636
301;21638
304;21640
304;21642
305;21644
305;21646
304;21648
305;21650
306;21652
306;21654
306;21656
306;21658
307;21660
307;21662
307;21664
307;21666
307;21668
307;21670
308;21672
308;21675
308;21677
308;21679
309;21681
309;21683
307;21685
310;21687
310;21689
309;21691
310;21693
315;21695
311;21697
311;21699
311;21701
311;21703
312;21705
312;21707
313;21709
313;21711
313;21713
314;21715
313;21718
314;21720
315;21722
315;21724
315;21726
316;21728
317;21730
317;21732
318;21734
318;21736
319;21738
319;21740
321;21742
321;21744
321;21746
321;21748
322;21750
322;21752
323;21754
323;21756
324;21758
324;21760
324;21762
324;21764
325;21766
325;21768
325;21770
325;21772
326;21774
326;21776
326;21778
325;21780
324;21782
324;21784
324;21786
323;21788
323;21790
323;21792
320;21794
321;21796
319;21798
319;21800
318;21803
321;21805
317;21807
315;21809
314;21811
313;21813
312;21815
311;21817
309;21819
308;21821
307;21823
306;21825
305;21827
303;21829
302;21831
301;21833
300;21835
299;21837
298;21839
296;21841
295;21843
295;21846
294;21848
293;21850
292;21852
291;21854
290;21856
289;21858
288;21860
287;21862
287;21864
286;21866
286;21868
285;21870
286;21872
284;21874
284;21876
283;21878
282;21880
282;21882
282;21884
281;21886
281;21888
281;21890
281;21892
280;21894
280;21896
280;21898
280;21900
280;21902
280;21904
279;21906
279;21908
279;21910
279;21912
281;21914
279;21916
279;21918
279;21920
279;21922
279;21924
279;21926
279;21928
279;21931
280;21933
280;21935
280;21937
280;21939
279;21941
279;21943
280;21945
281;21947
281;21949
281;21951
281;21953
281;21955
282;21957
282;21959
282;21961
282;21963
283;21965
283;21967
283;21969
283;21971
283;21974
283;21976
284;21978
284;21980
285;21982
285;21984
285;21986
285;21988
285;21990
286;21992
286;21994
286;21996
286;21998
286;22000
286;22002
287;22004
287;22006
287;22008
287;22010
287;22012
288;22014
287;22016
288;22018
288;22020
288;22022
289;22024
288;22026
289;22028
288;22030
288;22032
289;22034
289;22036
289;22038
289;22040
289;22042
290;22044
289;22046
290;22048
290;22050
290;22052
289;22054
290;22056
290;22059
290;22061
290;22063
291;22065
290;22067
290;22069
291;22071
291;22073
291;22075
290;22077
291;22079
291;22081
291;22083
291;22085
292;22087
292;22089
290;22091
292;22093
291;22095
291;22097
292;22099
291;22102
292;22104
292;22106
292;22108
292;22110
292;22112
292;22114
292;22116
293;22118
293;22120
293;22122
293;22124
292;22126
293;22128
293;22130
292;22132
293;22134
293;22136
291;22138
294;22140
293;22142
293;22144
294;22146
293;22148
294;22150
294;22152
295;22154
294;22156
293;22158
293;22160
294;22162
293;22164
294;22166
294;22168
295;22170
294;22172
295;22174
295;22176
295;22178
296;22180
296;22182
296;22184
296;22187
297;22189
297;22191
297;22193
298;22195
298;22197
299;22199
296;22201
300;22203
300;22205
300;22207
300;22209
301;22211
301;22213
301;22215
301;22217
301;22219
301;22221
301;22223
300;22225
301;22227
301;22230
301;22232
300;22234
300;22236
299;22238
299;22240
299;22242
300;22244
299;22246
297;22248
298;22250
297;22252
297;22254
297;22256
301;22258
297;22260
296;22262
295;22264
295;22266
295;22268
295;22270
295;22272
295;22274
295;22276
295;22278
294;22280
294;22282
294;22284
293;22286
293;22288
293;22290
293;22292
293;22294
293;22296
293;22298
293;22300
293;22302
293;22304
293;22306
293;22308
290;22310
292;22312
292;22315
292;22317
292;22319
289;22321
291;22323
290;22325
288;22327
287;22329
286;22331
284;22333
284;22335
283;22337
283;22339
285;22341
288;22343
293;22345
298;22347
305;22349
313;22351
322;22353
328;22355
331;22358
337;22360
338;22362
337;22364
335;22366
337;22368
329;22370
326;22372
322;22374
317;22376
311;22378
306;22380
301;22382
296;22384
291;22386
287;22388
284;22390
281;22392
278;22394
276;22396
275;22398
275;22400
274;22402
273;22404
273;22406
273;22408
274;22410
275;22412
276;22414
278;22416
279;22418
276;22420
279;22422
281;22424
282;22426
283;22428
280;22430
285;22432
286;22434
286;22436
287;22438
288;22440
288;22443
289;22445
290;22447
291;22449
292;22451
292;22453
293;22455
294;22457
294;22459
294;22461
296;22463
296;22465
295;22467
298;22469
297;22471
298;22473
299;22475
303;22477
300;22479
300;22481
300;22483
301;22486
301;22488
301;22490
301;22492
303;22494
303;22496
303;22498
303;22500
303;22502
304;22504
304;22506
304;22508
305;22510
305;22512
305;22514
305;22516
305;22518
306;22520
306;22522
307;22524
307;22526
307;22528
304;22530
308;22532
308;22534
308;22536
308;22538
311;22540
309;22542
309;22544
309;22546
309;22548
309;22550
309;22552
310;22554
311;22556
311;22558
311;22560
311;22562
312;22564
312;22566
313;22568
313;22571
313;22573
314;22575
314;22577
314;22579
315;22581
315;22583
315;22585
319;22587
317;22589
318;22591
318;22593
318;22595
319;22597
319;22599
320;22601
321;22603
321;22605
321;22607
322;22609
322;22611
323;22614
323;22616
324;22618
324;22620
325;22622
325;22624
325;22626
325;22628
325;22630
325;22632
326;22634
325;22636
325;22638
325;22640
325;22642
324;22644
324;22646
323;22648
323;22650
322;22652
322;22654
321;22656
320;22658
320;22660
318;22662
317;22664
317;22666
316;22668
315;22670
313;22672
312;22674
311;22676
310;22678
308;22680
308;22682
307;22684
305;22686
304;22688
303;22690
301;22692
300;22694
300;22696
299;22699
297;22701
296;22703
296;22705
294;22707
294;22709
293;22711
292;22713
291;22715
290;22717
289;22719
288;22721
288;22723
287;22725
286;22727
286;22729
285;22731
285;22733
283;22735
283;22737
283;22739
283;22742
282;22744
282;22746
282;22748
282;22750
281;22752
281;22754
281;22756
281;22758
280;22760
280;22762
279;22764
280;22766
280;22768
279;22770
279;22772
279;22774
280;22776
280;22778
279;22780
279;22782
279;22784
279;22786
279;22788
279;22790
280;22792
280;22794
280;22796
280;22798
281;22800
281;22802
281;22804
282;22806
281;22808
282;22810
282;22812
282;22814
282;22816
282;22818
282;22820
283;22822
283;22824
283;22827
284;22829
284;22831
284;22833
284;22835
284;22837
285;22839
285;22841
285;22843
286;22845
286;22847
286;22849
286;22851
286;22853
287;22855
287;22857
287;22859
287;22861
287;22863
288;22865
288;22867
288;22870
288;22872
286;22874
288;22876
288;22878
288;22880
288;22882
289;22884
289;22886
289;22888
289;22890
289;22892
289;22894
290;22896
290;22898
290;22900
290;22902
290;22904
291;22906
291;22908
290;22910
291;22912
292;22914
291;22916
291;22918
291;22920
291;22922
291;22924
292;22926
291;22928
292;22930
292;22932
292;22934
294;22936
292;22938
292;22940
292;22942
292;22944
291;22946
292;22948
292;22950
293;22952
292;22955
292;22957
292;22959
292;22961
293;22963
293;22965
293;22967
293;22969
293;22971
293;22973
293;22975
293;22977
294;22979
293;22981
291;22983
294;22985
293;22987
293;22989
293;22991
293;22993
294;22995
294;22998
294;23000
294;23002
294;23004
294;23006
294;23008
295;23010
295;23012
295;23014
296;23016
296;23018
295;23020
296;23022
296;23024
297;23026
297;23028
295;23030
298;23032
298;23034
299;23036
298;23038
299;23040
300;23042
300;23044
301;23046
301;23048
302;23050
302;23052
303;23054
302;23056
303;23058
303;23060
304;23062
303;23064
303;23066
303;23068
303;23070
303;23072
303;23074
303;23076
302;23078
302;23080
302;23083
302;23085
301;23087
302;23089
302;23091
298;23093
301;23095
300;23097
299;23099
299;23101
296;23103
299;23105
298;23107
298;23109
297;23111
297;23113
296;23115
296;23117
296;23119
296;23121
295;23123
295;23126
295;23128
294;23130
294;23132
294;23134
294;23136
294;23138
293;23140
293;23142
293;23144
293;23146
293;23148
297;23150
293;23152
293;23154
292;23156
292;23158
293;23160
293;23162
292;23164
292;23166
292;23168
292;23170
291;23172
290;23174
290;23176
288;23178
287;23180
286;23182
285;23184
284;23186
283;23188
284;23190
286;23192
289;23194
294;23196
299;23198
306;23200
312;23202
323;23204
330;23206
336;23208
340;23211
343;23213
342;23215
340;23217
338;23219
334;23221
331;23223
327;23225
321;23227
317;23229
311;23231
305;23233
299;23235
295;23237
291;23239
288;23241
285;23243
283;23245
281;23247
278;23249
278;23251
276;23254
277;23256
276;23258
280;23260
278;23262
279;23264
279;23266
280;23268
280;23270
282;23272
281;23274
283;23276
284;23278
284;23280
285;23282
286;23284
286;23286
287;23288
288;23290
288;23292
289;23294
289;23296
290;23298
291;23300
291;23302
292;23304
291;23306
293;23308
294;23310
292;23312
294;23314
295;23316
295;23318
296;23320
301;23322
297;23324
297;23326
297;23328
298;23330
298;23332
299;23334
299;23336
300;23339
300;23341
300;23343
300;23345
301;23347
301;23349
302;23351
302;23353
303;23355
303;23357
303;23359
303;23361
304;23363
303;23365
303;23367
306;23369
305;23371
305;23373
304;23375
305;23377
305;23379
305;23382
305;23384
306;23386
306;23388
306;23390
306;23392
307;23394
307;23396
308;23398
308;23400
308;23402
309;23404
309;23406
309;23408
309;23410
309;23412
310;23414
310;23416
311;23418
311;23420
312;23422
312;23424
311;23426
312;23428
312;23430
318;23432
314;23434
314;23436
315;23438
315;23440
316;23442
316;23444
316;23446
317;23448
318;23450
318;23452
319;23454
319;23456
320;23458
320;23460
320;23462
321;23464
322;23467
322;23469
322;23471
323;23473
324;23475
323;23477
325;23479
324;23481
324;23483
324;23485
324;23487
324;23489
324;23491
323;23493
323;23495
323;23497
323;23499
322;23501
321;23503
321;23505
320;23507
319;23510
319;23512
318;23514
317;23516
316;23518
314;23520
314;23522
312;23524
311;23526
310;23528
309;23530
307;23532
307;23534
305;23536
304;23538
303;23540
302;23542
301;23544
297;23546
299;23548
297;23550
297;23552
296;23554
296;23556
294;23558
294;23560
292;23562
291;23564
290;23566
290;23568
289;23570
288;23572
288;23574
287;23576
286;23578
286;23580
285;23582
284;23584
284;23586
284;23588
283;23590
283;23592
281;23595
281;23597
281;23599
281;23601
281;23603
281;23605
280;23607
282;23609
279;23611
279;23613
279;23615
279;23617
279;23619
279;23621
279;23623
280;23625
279;23627
279;23629
279;23631
279;23633
279;23635
279;23638
279;23640
279;23642
279;23644
279;23646
279;23648
279;23650
280;23652
280;23654
277;23656
280;23658
280;23660
280;23662
280;23664
280;23666
281;23668
282;23670
282;23672
281;23674
281;23676
281;23678
282;23680
282;23682
283;23684
283;23686
283;23688
284;23690
284;23692
284;23694
284;23696
285;23698
285;23700
285;23702
286;23704
286;23706
285;23708
286;23710
286;23712
287;23714
287;23716
287;23718
287;23720
287;23723
287;23725
287;23727
287;23729
288;23731
288;23733
289;23735
288;23737
288;23739
288;23741
288;23743
289;23745
289;23747
289;23749
289;23751
289;23753
290;23755
289;23757
289;23759
290;23761
290;23763
288;23766
290;23768
290;23770
290;23772
290;23774
288;23776
291;23778
291;23780
291;23782
291;23784
291;23786
291;23788
291;23790
292;23792
292;23794
292;23796
291;23798
292;23800
292;23802
291;23804
292;23806
292;23808
292;23810
292;23812
292;23814
292;23816
292;23818
293;23820
292;23822
293;23824
293;23826
290;23828
292;23830
292;23832
292;23834
293;23836
293;23838
293;23840
293;23842
293;23844
293;23846
293;23848
293;23851
293;23853
294;23855
294;23857
294;23859
294;23861
293;23863
294;23865
293;23867
294;23869
294;23871
294;23873
292;23875
294;23877
294;23879
294;23881
294;23883
297;23885
295;23887
295;23889
294;23891
295;23894
295;23896
295;23898
295;23900
295;23902
296;23904
296;23906
296;23908
296;23910
297;23912
297;23914
297;23916
298;23918
298;23920
297;23922
299;23924
299;23926
300;23928
299;23930
303;23932
301;23934
301;23936
300;23938
302;23940
303;23942
302;23944
302;23946
303;23948
303;23950
303;23952
302;23954
302;23956
302;23958
301;23960
302;23962
302;23964
302;23966
302;23968
301;23970
301;23972
301;23974
301;23976
300;23979
300;23981
300;23983
297;23985
299;23987
298;23989
298;23991
297;23993
302;23995
297;23997
297;23999
296;24001
296;24003
295;24005
295;24007
295;24009
295;24011
295;24013
294;24015
294;24017
294;24019
294;24022
294;24024
293;24026
294;24028
294;24030
293;24032
293;24034
293;24036
293;24038
293;24040
294;24042
293;24044
293;24046
293;24048
292;24050
293;24052
292;24054
292;24056
292;24058
291;24060
289;24062
288;24064
287;24066
286;24068
284;24070
283;24072
284;24074
284;24076
286;24078
289;24080
293;24082
299;24084
306;24086
315;24088
324;24090
331;24092
336;24094
341;24096
343;24098
342;24100
340;24102
342;24104
334;24107
330;24109
325;24111
320;24113
315;24115
309;24117
304;24119
299;24121
295;24123
291;24125
288;24127
285;24129
283;24131
280;24133
279;24135
278;24137
278;24139
277;24141
278;24143
278;24145
279;24147
280;24150
280;24152
281;24154
281;24156
281;24158
282;24160
283;24162
284;24164
285;24166
286;24168
286;24170
287;24172
287;24174
288;24176
288;24178
289;24180
290;24182
291;24184
291;24186
292;24188
292;24190
292;24192
293;24194
294;24196
294;24198
295;24200
295;24202
294;24204
296;24206
296;24208
297;24210
297;24212
301;24214
298;24216
299;24218
298;24220
299;24222
299;24224
300;24226
300;24228
301;24230
301;24232
301;24235
301;24237
302;24239
301;24241
302;24243
302;24245
303;24247
303;24249
303;24251
303;24253
303;24255
304;24257
304;24259
305;24261
305;24263
305;24265
305;24267
305;24269
306;24271
305;24273
305;24275
306;24278
306;24280
308;24282
307;24284
307;24286
307;24288
307;24290
307;24292
308;24294
309;24296
309;24298
309;24300
309;24302
310;24304
310;24306
311;24308
311;24310
312;24312
311;24314
312;24316
312;24318
313;24320
313;24322
316;24324
315;24326
315;24328
315;24330
316;24332
316;24334
317;24336
317;24338
319;24340
319;24342
320;24344
320;24346
320;24348
321;24350
321;24352
321;24354
322;24356
323;24358
323;24360
323;24363
324;24365
323;24367
323;24369
324;24371
325;24373
324;24375
324;24377
324;24379
324;24381
323;24383
323;24385
323;24387
322;24389
322;24391
320;24393
320;24395
319;24397
318;24399
318;24401
316;24403
315;24406
315;24408
313;24410
311;24412
311;24414
310;24416
309;24418
307;24420
306;24422
305;24424
303;24426
302;24428
302;24430
300;24432
299;24434
298;24436
294;24438
296;24440
295;24442
294;24444
293;24446
292;24448
292;24450
291;24452
290;24454
289;24456
289;24458
288;24460
287;24462
286;24464
286;24466
285;24468
285;24470
284;24472
283;24474
283;24476
282;24478
283;24480
282;24482
282;24484
281;24486
281;24488
280;24491
280;24493
280;24495
280;24497
280;24499
278;24501
279;24503
279;24505
279;24507
279;24509
279;24511
279;24513
279;24515
280;24517
278;24519
279;24521
279;24523
279;24525
279;24527
279;24529
279;24531
279;24534
280;24536
279;24538
279;24540
279;24542
280;24544
280;24546
277;24548
280;24550
280;24552
280;24554
281;24556
278;24558
281;24560
282;24562
281;24564
282;24566
282;24568
282;24570
283;24572
283;24574
283;24576
283;24578
283;24580
283;24582
283;24584
284;24586
284;24588
285;24590
285;24592
285;24594
285;24596
286;24598
286;24600
286;24602
286;24604
286;24606
287;24608
284;24610
287;24612
287;24614
287;24616
287;24619
287;24621
288;24623
288;24625
288;24627
288;24629
288;24631
288;24633
288;24635
289;24637
289;24639
289;24641
289;24643
290;24645
289;24647
289;24649
289;24651
290;24653
290;24655
287;24657
290;24659
290;24662
290;24664
290;24666
294;24668
291;24670
291;24672
291;24674
291;24676
291;24678
291;24680
291;24682
292;24684
291;24686
291;24688
291;24690
291;24692
291;24694
292;24696
292;24698
292;24700
292;24702
292;24704
292;24706
292;24708
292;24710
292;24712
292;24714
293;24716
293;24718
289;24720
292;24722
292;24724
292;24726
292;24728
292;24730
293;24732
293;24734
293;24736
293;24738
293;24740
293;24742
293;24744
293;24747
293;24749
293;24751
293;24753
293;24755
293;24757
293;24759
293;24761
294;24763
294;24765
292;24767
294;24769
294;24771
293;24773
293;24775
299;24777
294;24779
294;24781
294;24783
294;24785
294;24787
293;24790
294;24792
294;24794
295;24796
295;24798
295;24800
294;24802
294;24804
295;24806
294;24808
294;24810
295;24812
294;24814
295;24816
295;24818
295;24820
295;24822
296;24824
295;24826
295;24828
294;24830
295;24832
295;24834
294;24836
294;24838
292;24840
295;24842
295;24844
295;24846
295;24848
295;24850
296;24852
297;24854
297;24856
297;24858
297;24860
298;24862
298;24864
298;24866
298;24868
299;24870
300;24872
300;24875
299;24877
300;24879
301;24881
301;24883
301;24885
305;24887
301;24889
301;24891
300;24893
300;24895
300;24897
300;24899
300;24901
300;24903
300;24905
300;24907
299;24909
299;24911
299;24913
300;24915
299;24918
299;24920
299;24922
297;24924
298;24926
298;24928
297;24930
296;24932
297;24934
297;24936
297;24938
296;24940
295;24942
296;24944
296;24946
295;24948
296;24950
295;24952
295;24954
295;24956
295;24958
295;24960
294;24962
294;24964
295;24966
295;24968
295;24970
294;24972
294;24974
294;24976
294;24978
294;24980
294;24982
294;24984
293;24986
294;24988
292;24990
291;24992
290;24994
292;24996
288;24998
286;25000
285;25003
284;25005
284;25007
286;25009
289;25011
293;25013
299;25015
306;25017
313;25019
321;25021
330;25023
336;25025
340;25027
342;25029
342;25031
339;25033
336;25035
333;25037
329;25039
325;25041
320;25043
314;25046
309;25048
303;25050
297;25052
293;25054
289;25056
286;25058
283;25060
281;25062
281;25064
277;25066
275;25068
275;25070
275;25072
275;25074
276;25076
277;25078
278;25080
278;25082
279;25084
279;25086
280;25088
281;25090
282;25092
282;25094
282;25096
284;25098
285;25100
285;25102
286;25104
288;25106
288;25108
289;25110
289;25112
290;25114
290;25116
291;25118
291;25120
293;25122
293;25124
294;25126
294;25128
295;25131
295;25133
295;25135
296;25137
297;25139
297;25141
298;25143
298;25145
298;25147
298;25149
299;25151
300;25153
300;25155
300;25157
300;25159
300;25161
301;25163
302;25165
302;25167
302;25169
303;25171
302;25174
303;25176
303;25178
303;25180
303;25182
303;25184
304;25186
304;25188
304;25190
305;25192
305;25194
305;25196
305;25198
306;25200
306;25202
306;25204
306;25206
306;25208
306;25210
307;25212
307;25214
308;25216
308;25218
308;25220
307;25222
308;25224
308;25226
309;25228
309;25230
310;25232
310;25234
310;25236
311;25238
311;25240
311;25242
312;25244
312;25246
313;25248
313;25250
314;25252
314;25254
315;25256
315;25259
316;25261
316;25263
317;25265
317;25267
317;25269
318;25271
319;25273
319;25275
320;25277
320;25279
321;25281
319;25283
322;25285
322;25287
323;25289
323;25291
324;25293
324;25295
324;25297
324;25299
324;25302
324;25304
324;25306
324;25308
324;25310
324;25312
324;25314
324;25316
323;25318
322;25320
322;25322
321;25324
321;25326
320;25328
316;25330
318;25332
317;25334
315;25336
314;25338
315;25340
313;25342
312;25344
311;25346
309;25348
308;25350
307;25352
306;25354
304;25356
304;25358
303;25360
302;25362
300;25364
299;25366
297;25368
297;25370
296;25372
295;25374
294;25376
293;25378
291;25380
291;25382
290;25384
290;25387
289;25389
288;25391
285;25393
287;25395
286;25397
285;25399
285;25401
283;25403
283;25405
283;25407
282;25409
282;25411
281;25413
281;25415
281;25417
280;25419
280;25421
280;25423
279;25425
279;25427
279;25430
279;25432
279;25434
279;25436
279;25438
277;25440
279;25442
279;25444
279;25446
278;25448
283;25450
279;25452
279;25454
278;25456
279;25458
279;25460
279;25462
280;25464
279;25466
279;25468
280;25470
280;25472
279;25474
279;25476
280;25478
280;25480
281;25482
281;25484
281;25486
281;25488
