mV;time
0;0
285;2
285;4
285;6
285;8
286;10
286;12
286;14
286;16
287;18
287;20
287;22
287;24
288;26
288;28
287;30
289;32
288;34
289;36
289;38
289;40
290;43
290;45
290;47
291;49
290;51
290;53
291;55
291;57
291;59
292;61
291;63
291;65
291;67
292;69
293;71
292;73
292;75
290;77
291;79
292;81
292;83
292;86
293;88
292;90
293;92
293;94
291;96
292;98
292;100
292;102
292;104
292;106
292;108
292;110
292;112
292;114
292;116
293;118
293;120
293;122
292;124
292;126
293;128
292;130
293;132
292;134
293;136
293;138
290;140
293;142
293;144
293;146
293;148
293;150
293;152
293;154
292;156
292;158
292;160
292;162
291;164
292;166
291;168
291;171
291;173
291;175
292;177
292;179
292;181
293;183
294;185
292;187
294;189
295;191
296;193
295;195
299;197
296;199
296;201
295;203
295;205
296;207
298;209
297;211
298;214
298;216
297;218
296;220
296;222
296;224
296;226
297;228
297;230
296;232
295;234
294;236
292;238
292;240
292;242
294;244
292;246
292;248
290;250
290;252
290;254
289;256
290;258
290;260
292;262
293;264
293;266
294;268
294;270
293;272
293;274
294;276
295;278
295;280
295;282
295;284
295;286
295;288
295;290
295;292
295;294
292;296
293;299
293;301
293;303
295;305
298;307
295;309
294;311
293;313
293;315
293;317
293;319
293;321
293;323
292;325
290;327
287;329
286;331
282;333
280;335
278;337
277;339
276;342
276;344
276;346
278;348
282;350
289;352
299;354
307;356
316;358
327;360
339;362
351;364
362;366
371;368
378;370
381;372
382;374
380;376
378;378
374;380
371;382
368;384
365;386
362;388
359;390
354;392
350;394
345;396
340;398
335;400
332;402
329;404
326;406
324;408
322;410
319;412
317;414
317;416
310;418
306;420
303;422
301;424
298;427
296;429
295;431
294;433
293;435
291;437
289;439
288;441
287;443
286;445
284;447
284;449
283;451
283;453
282;455
280;457
279;459
278;461
278;463
277;465
277;467
277;470
277;472
278;474
278;476
278;478
277;480
277;482
276;484
275;486
275;488
274;490
275;492
275;494
276;496
275;498
274;500
275;502
273;504
273;506
274;508
274;510
275;512
275;514
273;516
274;518
274;520
274;522
274;524
278;526
275;528
275;530
275;532
275;534
275;536
273;538
274;540
273;542
274;544
275;546
276;548
276;550
276;552
277;555
277;557
278;559
278;561
279;563
278;565
278;567
278;569
279;571
280;573
280;575
281;577
281;579
281;581
280;583
281;585
281;587
281;589
281;591
282;593
283;595
284;598
284;600
284;602
284;604
285;606
285;608
285;610
285;612
286;614
287;616
287;618
288;620
289;622
290;624
291;626
290;628
291;630
291;632
292;634
293;636
293;638
293;640
292;642
293;644
294;646
294;648
296;650
297;652
297;654
298;656
299;658
298;660
298;662
298;664
299;666
300;668
300;670
300;672
298;674
299;676
297;678
296;680
298;683
298;685
298;687
297;689
298;691
297;693
297;695
297;697
296;699
296;701
297;703
295;705
294;707
294;709
295;711
294;713
294;715
294;717
294;719
294;721
292;723
293;726
292;728
291;730
290;732
289;734
290;736
289;738
290;740
289;742
290;744
291;746
291;748
288;750
291;752
291;754
291;756
290;758
291;760
292;762
292;764
293;766
293;768
293;770
292;772
293;774
293;776
294;778
294;780
294;782
295;784
295;786
295;788
296;790
296;792
296;794
295;796
294;798
295;800
294;802
293;804
293;806
294;808
294;811
295;813
294;815
293;817
295;819
295;821
295;823
295;825
295;827
295;829
295;831
295;833
295;835
295;837
295;839
296;841
296;843
297;845
297;847
297;849
297;851
297;854
298;856
298;858
295;860
298;862
298;864
298;866
297;868
296;870
297;872
297;874
298;876
297;878
298;880
298;882
298;884
298;886
297;888
297;890
296;892
296;894
298;896
297;898
299;900
299;902
300;904
300;906
299;908
299;910
300;912
299;914
300;916
300;918
300;920
301;922
299;924
300;926
301;928
300;930
300;932
301;934
301;936
301;939
301;941
301;943
302;945
303;947
303;949
304;951
304;953
304;955
304;957
304;959
303;961
304;963
305;965
305;967
302;969
305;971
305;973
304;975
305;977
304;979
305;982
305;984
305;986
305;988
305;990
304;992
304;994
304;996
304;998
304;1000
304;1002
302;1004
303;1006
303;1008
301;1010
302;1012
301;1014
299;1016
298;1018
297;1020
296;1022
296;1024
296;1026
296;1028
296;1030
296;1032
297;1034
298;1036
298;1038
298;1040
299;1042
299;1044
299;1046
299;1048
300;1050
298;1052
298;1054
298;1056
298;1058
298;1060
298;1062
297;1064
297;1067
297;1069
297;1071
297;1073
297;1075
297;1077
294;1079
296;1081
295;1083
292;1085
289;1087
283;1089
282;1091
280;1093
279;1095
280;1097
281;1099
283;1101
285;1103
289;1105
295;1107
302;1110
311;1112
320;1114
330;1116
339;1118
349;1120
358;1122
365;1124
368;1126
371;1128
372;1130
371;1132
368;1134
369;1136
362;1138
358;1140
355;1142
351;1144
348;1146
344;1148
340;1150
339;1152
336;1154
332;1156
328;1158
326;1160
323;1162
320;1164
317;1166
315;1168
312;1170
310;1172
308;1174
305;1176
303;1178
301;1180
299;1182
298;1184
296;1186
292;1188
293;1190
291;1192
290;1195
289;1197
287;1199
287;1201
286;1203
286;1205
284;1207
283;1209
282;1211
280;1213
280;1215
279;1217
279;1219
279;1221
278;1223
278;1225
278;1227
278;1229
278;1231
278;1233
277;1235
277;1238
277;1240
277;1242
277;1244
279;1246
276;1248
276;1250
276;1252
276;1254
276;1256
275;1258
275;1260
275;1262
275;1264
275;1266
275;1268
274;1270
274;1272
275;1274
275;1276
275;1278
275;1280
275;1282
275;1284
275;1286
275;1288
275;1290
276;1292
275;1294
275;1296
273;1298
276;1300
276;1302
277;1304
277;1306
279;1308
278;1310
278;1312
278;1314
279;1316
279;1318
279;1320
280;1323
280;1325
280;1327
280;1329
280;1331
279;1333
279;1335
279;1337
280;1339
281;1341
281;1343
280;1345
282;1347
283;1349
284;1351
285;1353
287;1355
286;1357
286;1359
287;1361
288;1363
287;1366
288;1368
289;1370
290;1372
291;1374
291;1376
292;1378
292;1380
293;1382
293;1384
294;1386
295;1388
295;1390
295;1392
296;1394
297;1396
297;1398
298;1400
299;1402
299;1404
299;1406
298;1408
300;1410
300;1412
299;1414
299;1416
302;1418
299;1420
300;1422
300;1424
300;1426
300;1428
300;1430
301;1432
300;1434
300;1436
299;1438
298;1440
298;1442
298;1444
297;1446
297;1448
297;1451
296;1453
295;1455
294;1457
294;1459
293;1461
293;1463
294;1465
292;1467
291;1469
290;1471
291;1473
289;1475
289;1477
290;1479
289;1481
288;1483
288;1485
287;1487
287;1489
287;1491
286;1494
287;1496
287;1498
287;1500
286;1502
287;1504
286;1506
287;1508
286;1510
287;1512
287;1514
287;1516
287;1518
287;1520
286;1522
286;1524
286;1526
287;1528
287;1530
289;1532
288;1534
287;1536
288;1538
287;1540
287;1542
288;1544
288;1546
288;1548
288;1550
287;1552
288;1554
288;1556
288;1558
289;1560
289;1562
289;1564
288;1566
289;1568
289;1570
289;1572
290;1574
289;1576
289;1579
289;1581
289;1583
289;1585
289;1587
289;1589
289;1591
289;1593
290;1595
290;1597
289;1599
289;1601
290;1603
290;1605
290;1607
290;1609
290;1611
290;1613
290;1615
290;1617
290;1619
290;1622
291;1624
290;1626
290;1628
290;1630
291;1632
290;1634
290;1636
291;1638
291;1640
291;1642
290;1644
290;1646
291;1648
290;1650
292;1652
291;1654
292;1656
292;1658
293;1660
292;1662
292;1664
292;1666
291;1668
293;1670
293;1672
293;1674
293;1676
293;1678
294;1680
296;1682
297;1684
297;1686
297;1688
297;1690
298;1692
298;1694
298;1696
299;1698
299;1700
299;1702
299;1704
300;1707
300;1709
300;1711
299;1713
299;1715
299;1717
299;1719
298;1721
298;1723
298;1725
298;1727
297;1729
297;1731
297;1733
297;1735
296;1737
296;1739
295;1741
296;1743
296;1745
296;1747
295;1750
294;1752
294;1754
295;1756
295;1758
294;1760
294;1762
294;1764
294;1766
294;1768
294;1770
294;1772
294;1774
294;1776
294;1778
294;1780
295;1782
294;1784
295;1786
294;1788
294;1790
294;1792
295;1794
295;1796
295;1798
294;1800
294;1802
294;1804
294;1806
294;1808
294;1810
294;1812
293;1814
291;1816
289;1818
287;1820
286;1822
285;1824
284;1826
283;1828
284;1830
284;1832
286;1835
290;1837
295;1839
302;1841
310;1843
319;1845
327;1847
337;1849
347;1851
355;1853
362;1855
368;1857
370;1859
368;1861
368;1863
366;1865
364;1867
360;1869
356;1871
354;1873
351;1875
348;1878
344;1880
342;1882
338;1884
335;1886
332;1888
330;1890
327;1892
325;1894
322;1896
320;1898
318;1900
315;1902
313;1904
311;1906
307;1908
307;1910
307;1912
306;1914
304;1916
303;1918
302;1920
301;1922
300;1924
298;1926
297;1928
296;1930
295;1932
295;1934
294;1936
293;1938
292;1940
291;1942
291;1944
290;1946
289;1948
290;1950
289;1952
289;1954
289;1956
288;1958
288;1960
287;1963
287;1965
288;1967
288;1969
285;1971
287;1973
287;1975
287;1977
287;1979
287;1981
287;1983
287;1985
286;1987
287;1989
287;1991
287;1993
286;1995
287;1997
287;1999
287;2001
287;2003
287;2006
287;2008
287;2010
287;2012
288;2014
288;2016
286;2018
288;2020
288;2022
288;2024
288;2026
291;2028
290;2030
290;2032
290;2034
291;2036
291;2038
291;2040
291;2042
292;2044
292;2046
292;2048
292;2050
294;2052
294;2054
293;2056
295;2058
294;2060
295;2062
295;2064
295;2066
295;2068
296;2070
296;2072
297;2074
298;2076
299;2078
297;2080
299;2082
300;2084
301;2086
301;2088
303;2091
303;2093
304;2095
304;2097
304;2099
305;2101
305;2103
306;2105
308;2107
308;2109
309;2111
309;2113
310;2115
310;2117
310;2119
311;2121
312;2123
313;2125
311;2127
314;2129
315;2131
315;2134
316;2136
319;2138
317;2140
317;2142
317;2144
318;2146
317;2148
317;2150
318;2152
317;2154
317;2156
317;2158
316;2160
316;2162
316;2164
315;2166
314;2168
314;2170
314;2172
312;2174
313;2176
312;2178
312;2180
311;2182
310;2184
310;2186
310;2188
306;2190
309;2192
308;2194
307;2196
306;2198
306;2200
306;2202
305;2204
304;2206
304;2208
304;2210
304;2212
303;2214
303;2216
303;2219
303;2221
302;2223
303;2225
303;2227
303;2229
303;2231
303;2233
302;2235
301;2237
302;2239
301;2241
302;2243
301;2245
306;2247
302;2249
302;2251
302;2253
302;2255
302;2257
302;2259
302;2262
302;2264
303;2266
302;2268
302;2270
302;2272
303;2274
303;2276
303;2278
304;2280
304;2282
304;2284
303;2286
303;2288
303;2290
303;2292
304;2294
304;2296
303;2298
304;2300
304;2302
304;2304
304;2306
304;2308
302;2310
304;2312
304;2314
304;2316
305;2318
305;2320
305;2322
304;2324
305;2326
305;2328
305;2330
305;2332
305;2334
305;2336
305;2338
305;2340
306;2342
306;2344
304;2347
306;2349
306;2351
306;2353
306;2355
309;2357
305;2359
305;2361
304;2363
304;2365
305;2367
305;2369
305;2371
305;2373
306;2375
306;2377
306;2379
306;2381
307;2383
306;2385
307;2387
307;2390
307;2392
307;2394
307;2396
307;2398
307;2400
308;2402
309;2404
308;2406
308;2408
308;2410
307;2412
308;2414
307;2416
308;2418
309;2420
309;2422
309;2424
308;2426
309;2428
309;2430
309;2432
309;2434
310;2436
310;2438
310;2440
310;2442
310;2444
310;2446
310;2448
311;2450
311;2452
312;2454
311;2456
313;2458
313;2460
314;2462
315;2464
318;2466
315;2468
315;2470
315;2472
316;2475
316;2477
316;2479
317;2481
317;2483
317;2485
317;2487
317;2489
316;2491
316;2493
315;2495
316;2497
315;2499
315;2501
315;2503
315;2505
314;2507
313;2509
313;2511
313;2513
312;2515
312;2518
312;2520
311;2522
311;2524
311;2526
310;2528
311;2530
310;2532
310;2534
310;2536
309;2538
310;2540
309;2542
309;2544
309;2546
309;2548
308;2550
309;2552
309;2554
308;2556
308;2558
307;2560
308;2562
307;2564
306;2566
306;2568
307;2570
306;2572
307;2574
310;2576
307;2578
307;2580
306;2582
306;2584
305;2586
305;2588
304;2590
303;2592
301;2594
299;2596
296;2598
295;2600
293;2603
293;2605
292;2607
293;2609
294;2611
297;2613
301;2615
307;2617
314;2619
322;2621
331;2623
339;2625
347;2627
355;2629
362;2631
367;2633
371;2635
371;2637
370;2639
367;2641
365;2643
360;2646
358;2648
354;2650
350;2652
348;2654
345;2656
342;2658
338;2660
336;2662
333;2664
330;2666
328;2668
325;2670
323;2672
321;2674
318;2676
316;2678
315;2680
313;2682
310;2684
309;2686
308;2688
307;2690
306;2692
305;2694
303;2696
302;2698
301;2700
300;2702
299;2704
298;2706
297;2708
296;2710
295;2712
294;2714
294;2716
293;2718
293;2720
291;2722
292;2724
291;2726
291;2728
291;2731
290;2733
290;2735
290;2737
289;2739
289;2741
288;2743
288;2745
288;2747
288;2749
287;2751
287;2753
286;2755
286;2757
287;2759
287;2761
285;2763
286;2765
286;2767
286;2769
286;2771
286;2774
286;2776
286;2778
286;2780
286;2782
286;2784
285;2786
286;2788
286;2790
286;2792
286;2794
287;2796
288;2798
285;2800
287;2802
287;2804
287;2806
289;2808
288;2810
289;2812
289;2814
289;2816
290;2818
290;2820
291;2822
291;2824
291;2826
291;2828
291;2830
292;2832
292;2834
292;2836
292;2838
293;2840
294;2842
294;2844
295;2846
295;2848
295;2850
295;2852
296;2854
296;2856
297;2859
297;2861
299;2863
298;2865
298;2867
299;2869
298;2871
300;2873
301;2875
301;2877
302;2879
301;2881
302;2883
302;2885
303;2887
304;2889
304;2891
305;2893
305;2895
306;2897
307;2899
307;2902
308;2904
309;2906
309;2908
307;2910
309;2912
310;2914
311;2916
311;2918
311;2920
312;2922
312;2924
311;2926
311;2928
312;2930
311;2932
312;2934
312;2936
312;2938
312;2940
310;2942
310;2944
311;2946
310;2948
309;2950
310;2952
309;2954
309;2956
309;2958
308;2960
308;2962
307;2964
306;2966
307;2968
306;2970
307;2972
305;2974
305;2976
304;2978
303;2980
302;2982
303;2984
303;2987
302;2989
302;2991
302;2993
301;2995
301;2997
301;2999
300;3001
300;3003
299;3005
298;3007
298;3009
299;3011
299;3013
299;3015
298;3017
296;3019
298;3021
298;3023
298;3025
298;3027
298;3030
297;3032
297;3034
296;3036
296;3038
296;3040
297;3042
297;3044
298;3046
298;3048
298;3050
299;3052
298;3054
298;3056
297;3058
297;3060
298;3062
298;3064
296;3066
298;3068
298;3070
298;3072
299;3074
299;3076
299;3078
298;3080
300;3082
298;3084
297;3086
298;3088
298;3090
299;3092
299;3094
299;3096
299;3098
298;3100
298;3102
297;3104
298;3106
298;3108
298;3110
298;3112
299;3115
298;3117
298;3119
298;3121
297;3123
298;3125
298;3127
295;3129
298;3131
297;3133
299;3135
299;3137
297;3139
299;3141
299;3143
298;3145
298;3147
298;3149
296;3151
296;3153
296;3155
296;3158
296;3160
296;3162
295;3164
295;3166
295;3168
294;3170
294;3172
293;3174
292;3176
293;3178
292;3180
294;3182
295;3184
299;3186
296;3188
296;3190
296;3192
296;3194
296;3196
295;3198
296;3200
296;3202
296;3204
296;3206
296;3208
297;3210
296;3212
296;3214
296;3216
296;3218
295;3220
296;3222
296;3224
297;3226
298;3228
297;3230
297;3232
297;3234
296;3236
293;3238
295;3240
294;3243
294;3245
295;3247
294;3249
297;3251
298;3253
297;3255
298;3257
298;3259
299;3261
298;3263
299;3265
298;3267
298;3269
298;3271
298;3273
298;3275
297;3277
297;3279
296;3281
295;3283
293;3286
294;3288
293;3290
293;3292
293;3294
296;3296
292;3298
291;3300
289;3302
290;3304
289;3306
289;3308
289;3310
289;3312
289;3314
289;3316
288;3318
289;3320
289;3322
288;3324
287;3326
288;3328
287;3330
287;3332
287;3334
286;3336
286;3338
287;3340
286;3342
286;3344
285;3346
282;3348
285;3350
285;3352
285;3354
285;3356
283;3358
285;3360
284;3362
282;3364
282;3366
280;3368
278;3371
277;3373
275;3375
274;3377
273;3379
272;3381
271;3383
271;3385
273;3387
277;3389
283;3391
290;3393
298;3395
307;3397
316;3399
326;3401
334;3403
344;3405
347;3407
351;3409
353;3411
353;3414
350;3416
348;3418
346;3420
343;3422
340;3424
337;3426
332;3428
329;3430
324;3432
321;3434
318;3436
316;3438
313;3440
310;3442
308;3444
305;3446
303;3448
300;3450
299;3452
296;3454
295;3456
292;3458
291;3460
289;3462
288;3464
285;3466
282;3468
282;3470
281;3472
280;3474
279;3476
278;3478
278;3480
277;3482
276;3484
276;3486
275;3488
275;3490
274;3492
274;3494
274;3496
273;3499
271;3501
269;3503
267;3505
268;3507
268;3509
269;3511
269;3513
272;3515
270;3517
270;3519
270;3521
269;3523
268;3525
269;3527
268;3529
268;3531
268;3533
269;3535
269;3537
268;3539
269;3542
269;3544
269;3546
270;3548
270;3550
270;3552
270;3554
269;3556
269;3558
269;3560
270;3562
270;3564
271;3566
271;3568
270;3570
271;3572
271;3574
270;3576
271;3578
271;3580
273;3582
272;3584
273;3586
273;3588
273;3590
273;3592
273;3594
273;3596
272;3598
272;3600
273;3602
272;3604
273;3606
274;3608
275;3610
276;3612
276;3614
277;3616
277;3618
278;3620
278;3622
280;3624
279;3627
279;3629
279;3631
279;3633
280;3635
281;3637
283;3639
284;3641
284;3643
285;3645
284;3647
285;3649
286;3651
287;3653
288;3655
289;3657
288;3659
287;3661
286;3663
288;3665
290;3667
290;3670
292;3672
293;3674
294;3676
294;3678
294;3680
295;3682
295;3684
296;3686
297;3688
297;3690
299;3692
298;3694
298;3696
299;3698
299;3700
299;3702
299;3704
298;3706
298;3708
298;3710
298;3712
298;3714
298;3716
297;3718
296;3720
295;3722
294;3724
295;3726
295;3728
295;3730
294;3732
295;3734
292;3736
292;3738
291;3740
292;3742
291;3744
291;3746
290;3748
289;3750
288;3752
287;3755
288;3757
287;3759
288;3761
287;3763
287;3765
286;3767
286;3769
285;3771
284;3773
284;3775
284;3777
284;3779
285;3781
284;3783
285;3785
284;3787
284;3789
284;3791
285;3793
284;3795
284;3798
284;3800
285;3802
283;3804
283;3806
282;3808
282;3810
283;3812
283;3814
283;3816
282;3818
282;3820
282;3822
282;3824
283;3826
283;3828
283;3830
283;3832
282;3834
281;3836
281;3838
282;3840
283;3842
284;3844
283;3846
283;3848
283;3850
282;3852
283;3854
284;3856
283;3858
285;3860
286;3862
286;3864
286;3866
285;3868
284;3870
283;3872
281;3874
282;3876
283;3878
284;3880
284;3883
284;3885
284;3887
285;3889
286;3891
286;3893
286;3895
286;3897
286;3899
286;3901
285;3903
285;3905
286;3907
286;3909
286;3911
287;3913
287;3915
287;3917
286;3919
286;3921
287;3923
288;3926
288;3928
288;3930
288;3932
287;3934
286;3936
286;3938
285;3940
286;3942
287;3944
286;3946
288;3948
287;3950
285;3952
286;3954
285;3956
284;3958
287;3960
287;3962
288;3964
288;3966
289;3968
290;3970
290;3972
290;3974
290;3976
289;3978
289;3980
291;3982
291;3984
291;3986
292;3988
292;3990
292;3992
293;3994
292;3996
292;3998
293;4000
293;4002
293;4004
293;4006
292;4008
291;4011
291;4013
291;4015
291;4017
292;4019
290;4021
292;4023
293;4025
293;4027
293;4029
294;4031
294;4033
293;4035
294;4037
293;4039
294;4041
294;4043
294;4045
294;4047
294;4049
294;4051
294;4054
293;4056
295;4058
294;4060
294;4062
294;4064
294;4066
292;4068
294;4070
294;4072
295;4074
294;4076
292;4078
294;4080
295;4082
295;4084
294;4086
295;4088
295;4090
296;4092
296;4094
296;4096
295;4098
295;4100
296;4102
296;4104
296;4106
296;4108
295;4110
295;4112
294;4114
294;4116
294;4118
293;4120
294;4122
294;4124
293;4126
293;4128
290;4130
292;4132
292;4134
293;4136
292;4139
293;4141
294;4143
294;4145
293;4147
294;4149
294;4151
294;4153
294;4155
294;4157
295;4159
295;4161
294;4163
293;4165
293;4167
294;4169
293;4171
293;4173
293;4175
292;4177
293;4179
293;4182
293;4184
292;4186
293;4188
291;4190
291;4192
291;4194
291;4196
291;4198
291;4200
293;4202
292;4204
291;4206
291;4208
290;4210
290;4212
290;4214
291;4216
291;4218
291;4220
291;4222
291;4224
289;4226
290;4228
290;4230
291;4232
290;4234
291;4236
291;4238
288;4240
290;4242
290;4244
291;4246
291;4248
291;4250
291;4252
291;4254
290;4256
291;4258
289;4260
290;4262
290;4264
290;4267
290;4269
290;4271
289;4273
290;4275
290;4277
289;4279
289;4281
289;4283
289;4285
287;4287
289;4289
290;4291
290;4293
289;4295
294;4297
290;4299
291;4301
291;4303
289;4305
289;4307
290;4310
289;4312
290;4314
290;4316
290;4318
290;4320
290;4322
290;4324
289;4326
289;4328
289;4330
289;4332
289;4334
289;4336
290;4338
291;4340
291;4342
292;4344
290;4346
289;4348
288;4350
288;4352
287;4354
289;4356
289;4358
288;4360
290;4362
290;4364
290;4366
289;4368
289;4370
289;4372
288;4374
289;4376
290;4378
290;4380
290;4382
290;4384
290;4386
290;4388
291;4390
291;4392
291;4395
291;4397
291;4399
291;4401
292;4403
292;4405
295;4407
291;4409
292;4411
292;4413
291;4415
292;4417
292;4419
293;4421
294;4423
294;4425
293;4427
291;4429
290;4431
291;4433
291;4435
291;4438
292;4440
292;4442
292;4444
292;4446
292;4448
293;4450
291;4452
293;4454
292;4456
293;4458
292;4460
291;4462
291;4464
292;4466
293;4468
293;4470
293;4472
293;4474
293;4476
294;4478
294;4480
295;4482
294;4484
295;4486
295;4488
295;4490
295;4492
296;4494
296;4496
297;4498
296;4500
297;4502
297;4504
297;4506
298;4508
298;4510
299;4512
298;4514
302;4516
300;4518
300;4520
300;4523
299;4525
299;4527
298;4529
298;4531
299;4533
299;4535
299;4537
298;4539
298;4541
298;4543
299;4545
299;4547
298;4549
298;4551
299;4553
297;4555
298;4557
298;4559
297;4561
298;4563
297;4566
297;4568
296;4570
297;4572
297;4574
296;4576
296;4578
297;4580
296;4582
296;4584
295;4586
294;4588
294;4590
294;4592
295;4594
295;4596
295;4598
295;4600
294;4602
295;4604
295;4606
294;4608
294;4610
293;4612
293;4614
292;4616
292;4618
292;4620
292;4622
293;4624
295;4626
292;4628
291;4630
290;4632
288;4634
286;4636
285;4638
283;4640
282;4642
281;4644
281;4646
281;4648
283;4651
286;4653
289;4655
295;4657
302;4659
310;4661
319;4663
328;4665
337;4667
347;4669
355;4671
362;4673
366;4675
368;4677
367;4679
365;4681
364;4683
361;4685
357;4687
355;4689
352;4691
349;4694
344;4696
340;4698
338;4700
334;4702
331;4704
328;4706
326;4708
322;4710
321;4712
317;4714
315;4716
312;4718
310;4720
308;4722
305;4724
303;4726
301;4728
300;4730
297;4732
296;4734
297;4736
294;4738
292;4740
290;4742
289;4744
287;4746
285;4748
284;4750
284;4752
283;4754
282;4756
281;4758
280;4760
279;4762
280;4764
278;4766
278;4768
278;4770
277;4772
277;4774
276;4776
276;4779
276;4781
276;4783
276;4785
276;4787
275;4789
274;4791
274;4793
274;4795
273;4797
274;4799
274;4801
276;4803
274;4805
274;4807
273;4809
273;4811
272;4813
273;4815
274;4817
273;4819
274;4822
273;4824
274;4826
273;4828
274;4830
274;4832
274;4834
273;4836
274;4838
274;4840
275;4842
275;4844
275;4846
276;4848
273;4850
277;4852
277;4854
277;4856
277;4858
278;4860
278;4862
278;4864
278;4866
278;4868
278;4870
278;4872
278;4874
279;4876
280;4878
280;4880
281;4882
281;4884
282;4886
282;4888
282;4890
283;4892
283;4894
283;4896
283;4898
283;4900
284;4902
284;4904
285;4907
285;4909
286;4911
287;4913
287;4915
287;4917
288;4919
288;4921
289;4923
290;4925
291;4927
291;4929
292;4931
293;4933
292;4935
293;4937
295;4939
295;4941
296;4943
296;4945
296;4947
297;4950
298;4952
298;4954
300;4956
300;4958
298;4960
302;4962
302;4964
302;4966
303;4968
302;4970
304;4972
304;4974
304;4976
305;4978
305;4980
305;4982
304;4984
305;4986
305;4988
305;4990
305;4992
306;4994
306;4996
305;4998
306;5000
306;5002
306;5004
305;5006
305;5008
305;5010
305;5012
304;5014
303;5016
303;5018
303;5020
301;5022
302;5024
302;5026
301;5028
301;5030
301;5032
300;5035
300;5037
300;5039
299;5041
299;5043
297;5045
297;5047
297;5049
297;5051
296;5053
296;5055
296;5057
295;5059
295;5061
295;5063
295;5065
295;5067
292;5069
294;5071
294;5073
294;5075
295;5078
292;5080
294;5082
294;5084
294;5086
294;5088
294;5090
294;5092
294;5094
294;5096
294;5098
294;5100
293;5102
293;5104
295;5106
294;5108
294;5110
294;5112
294;5114
293;5116
294;5118
293;5120
293;5122
292;5124
293;5126
293;5128
293;5130
291;5132
294;5134
294;5136
294;5138
294;5140
294;5142
295;5144
295;5146
294;5148
294;5150
295;5152
294;5154
294;5156
294;5158
294;5160
294;5163
294;5165
294;5167
294;5169
294;5171
293;5173
293;5175
292;5177
290;5179
293;5181
293;5183
294;5185
294;5187
295;5189
295;5191
295;5193
294;5195
294;5197
294;5199
295;5201
294;5203
295;5206
295;5208
295;5210
295;5212
294;5214
294;5216
294;5218
294;5220
294;5222
294;5224
294;5226
295;5228
294;5230
295;5232
294;5234
297;5236
295;5238
295;5240
295;5242
294;5244
295;5246
295;5248
295;5250
295;5252
296;5254
296;5256
296;5258
297;5260
296;5262
295;5264
296;5266
296;5268
296;5270
296;5272
296;5274
296;5276
295;5278
296;5280
296;5282
296;5284
296;5286
295;5288
297;5291
297;5293
297;5295
297;5297
301;5299
298;5301
298;5303
298;5305
299;5307
298;5309
298;5311
298;5313
298;5315
298;5317
298;5319
298;5321
299;5323
298;5325
298;5327
298;5329
299;5331
299;5334
299;5336
299;5338
299;5340
299;5342
299;5344
301;5346
299;5348
300;5350
299;5352
299;5354
299;5356
299;5358
299;5360
299;5362
299;5364
299;5366
299;5368
299;5370
299;5372
299;5374
299;5376
300;5378
300;5380
299;5382
299;5384
300;5386
300;5388
299;5390
299;5392
299;5394
299;5396
297;5398
299;5400
299;5402
299;5404
299;5406
303;5408
300;5410
300;5412
300;5414
300;5416
301;5419
300;5421
300;5423
301;5425
302;5427
302;5429
302;5431
303;5433
304;5435
303;5437
304;5439
304;5441
304;5443
304;5445
304;5447
305;5449
305;5451
305;5453
306;5455
305;5457
305;5459
304;5462
305;5464
304;5466
304;5468
304;5470
304;5472
304;5474
303;5476
303;5478
303;5480
302;5482
303;5484
301;5486
302;5488
302;5490
302;5492
301;5494
300;5496
300;5498
300;5500
300;5502
299;5504
299;5506
298;5508
298;5510
298;5512
298;5514
298;5516
302;5518
298;5520
298;5522
297;5524
297;5526
297;5528
297;5530
297;5532
296;5534
296;5536
296;5538
296;5540
295;5542
296;5544
296;5547
296;5549
296;5551
296;5553
295;5555
294;5557
292;5559
290;5561
288;5563
288;5565
286;5567
284;5569
284;5571
282;5573
283;5575
285;5577
287;5579
291;5581
297;5583
304;5585
312;5587
320;5590
329;5592
338;5594
345;5596
353;5598
359;5600
363;5602
364;5604
363;5606
360;5608
358;5610
355;5612
351;5614
348;5616
344;5618
342;5620
338;5622
335;5624
332;5626
329;5628
327;5630
325;5632
322;5634
320;5636
317;5638
315;5640
313;5642
311;5644
309;5646
307;5648
304;5650
302;5652
300;5654
299;5656
298;5658
297;5660
295;5662
294;5664
292;5666
291;5668
289;5670
288;5672
289;5675
287;5677
286;5679
285;5681
285;5683
284;5685
283;5687
283;5689
282;5691
282;5693
281;5695
280;5697
280;5699
280;5701
279;5703
279;5705
279;5707
279;5709
279;5711
278;5713
278;5715
278;5718
277;5720
278;5722
278;5724
278;5726
277;5728
277;5730
276;5732
277;5734
277;5736
278;5738
277;5740
275;5742
277;5744
278;5746
277;5748
277;5750
277;5752
278;5754
278;5756
278;5758
278;5760
278;5762
278;5764
278;5766
278;5768
279;5770
279;5772
280;5774
278;5776
280;5778
281;5780
281;5782
281;5784
281;5786
281;5788
281;5790
282;5792
282;5794
283;5796
283;5798
282;5800
283;5803
284;5805
283;5807
283;5809
284;5811
284;5813
285;5815
286;5817
286;5819
287;5821
286;5823
287;5825
288;5827
288;5829
289;5831
289;5833
290;5835
291;5837
291;5839
291;5841
291;5843
292;5846
293;5848
294;5850
291;5852
294;5854
295;5856
295;5858
297;5860
297;5862
298;5864
299;5866
299;5868
299;5870
301;5872
301;5874
302;5876
302;5878
303;5880
303;5882
303;5884
303;5886
304;5888
304;5890
305;5892
305;5894
304;5896
305;5898
305;5900
304;5902
304;5904
304;5906
304;5908
304;5910
304;5912
305;5914
302;5916
303;5918
303;5920
301;5922
302;5924
301;5926
300;5928
300;5931
298;5933
298;5935
298;5937
298;5939
297;5941
297;5943
297;5945
296;5947
295;5949
295;5951
294;5953
292;5955
293;5957
292;5959
289;5961
291;5963
292;5965
290;5967
291;5969
288;5971
290;5974
290;5976
289;5978
290;5980
289;5982
289;5984
289;5986
289;5988
288;5990
288;5992
287;5994
287;5996
288;5998
288;6000
287;6002
288;6004
288;6006
286;6008
287;6010
287;6012
287;6014
287;6016
287;6018
287;6020
287;6022
287;6024
288;6026
287;6028
287;6030
287;6032
287;6034
288;6036
288;6038
288;6040
287;6042
287;6044
287;6046
287;6048
287;6050
287;6052
288;6054
287;6056
287;6059
287;6061
287;6063
287;6065
288;6067
288;6069
286;6071
288;6073
287;6075
288;6077
288;6079
286;6081
288;6083
288;6085
288;6087
287;6089
288;6091
287;6093
288;6095
288;6097
288;6099
288;6102
288;6104
288;6106
288;6108
288;6110
288;6112
289;6114
289;6116
288;6118
289;6120
289;6122
288;6124
288;6126
292;6128
289;6130
289;6132
289;6134
289;6136
289;6138
289;6140
289;6142
289;6144
290;6146
290;6148
289;6150
289;6152
289;6154
289;6156
289;6158
290;6160
290;6162
290;6164
290;6166
290;6168
290;6170
290;6172
290;6174
291;6176
291;6178
289;6180
292;6182
292;6184
292;6187
293;6189
293;6191
293;6193
294;6195
294;6197
294;6199
294;6201
296;6203
295;6205
297;6207
297;6209
298;6211
297;6213
298;6215
298;6217
298;6219
298;6221
299;6223
300;6225
299;6227
300;6230
299;6232
300;6234
299;6236
302;6238
300;6240
300;6242
299;6244
299;6246
298;6248
298;6250
298;6252
298;6254
298;6256
298;6258
298;6260
298;6262
297;6264
297;6266
297;6268
297;6270
297;6272
297;6274
295;6276
296;6278
296;6280
296;6282
295;6284
296;6286
295;6288
293;6290
295;6292
295;6294
295;6296
294;6298
297;6300
294;6302
294;6304
295;6306
295;6308
295;6310
294;6312
294;6315
295;6317
295;6319
295;6321
295;6323
295;6325
296;6327
294;6329
294;6331
295;6333
295;6335
294;6337
292;6339
290;6341
289;6343
288;6345
287;6347
284;6349
283;6351
283;6353
282;6355
283;6358
286;6360
289;6362
295;6364
302;6366
310;6368
319;6370
328;6372
337;6374
347;6376
354;6378
361;6380
366;6382
367;6384
368;6386
365;6388
363;6390
359;6392
356;6394
352;6396
349;6398
346;6400
344;6402
341;6404
337;6406
334;6408
335;6410
328;6412
325;6414
323;6416
319;6418
318;6420
315;6422
312;6424
311;6426
309;6428
306;6430
304;6432
302;6434
301;6436
298;6438
298;6440
296;6443
294;6445
292;6447
291;6449
290;6451
289;6453
288;6455
289;6457
286;6459
286;6461
284;6463
284;6465
283;6467
283;6469
280;6471
280;6473
280;6475
279;6477
278;6479
278;6481
278;6483
278;6486
278;6488
278;6490
278;6492
278;6494
276;6496
276;6498
278;6500
277;6502
277;6504
277;6506
277;6508
277;6510
276;6512
276;6514
276;6516
276;6518
277;6520
277;6522
277;6524
277;6526
277;6528
277;6530
277;6532
277;6534
278;6536
278;6538
278;6540
278;6542
278;6544
277;6546
279;6548
278;6550
279;6552
279;6554
278;6556
279;6558
279;6560
279;6562
280;6564
281;6566
280;6568
281;6571
281;6573
281;6575
281;6577
282;6579
283;6581
283;6583
283;6585
283;6587
284;6589
284;6591
285;6593
285;6595
285;6597
286;6599
287;6601
287;6603
287;6605
288;6607
288;6609
289;6611
290;6614
290;6616
291;6618
292;6620
292;6622
293;6624
294;6626
294;6628
295;6630
296;6632
295;6634
297;6636
298;6638
298;6640
298;6642
299;6644
300;6646
301;6648
301;6650
302;6652
303;6654
303;6656
303;6658
304;6660
305;6662
305;6664
306;6666
305;6668
305;6670
307;6672
307;6674
307;6676
306;6678
306;6680
306;6682
306;6684
305;6686
305;6688
304;6690
304;6692
304;6694
303;6696
302;6699
303;6701
302;6703
301;6705
301;6707
300;6709
299;6711
299;6713
298;6715
298;6717
297;6719
296;6721
296;6723
295;6725
295;6727
295;6729
294;6731
293;6733
294;6735
293;6737
293;6739
292;6742
290;6744
292;6746
291;6748
291;6750
291;6752
291;6754
291;6756
291;6758
290;6760
290;6762
290;6764
290;6766
290;6768
290;6770
290;6772
290;6774
290;6776
289;6778
290;6780
291;6782
291;6784
291;6786
291;6788
291;6790
291;6792
290;6794
290;6796
290;6798
291;6800
291;6802
291;6804
292;6806
291;6808
291;6810
291;6812
291;6814
291;6816
291;6818
291;6820
292;6822
291;6824
292;6827
291;6829
291;6831
291;6833
291;6835
291;6837
291;6839
292;6841
292;6843
291;6845
291;6847
291;6849
291;6851
288;6853
291;6855
291;6857
291;6859
290;6861
291;6863
291;6865
291;6867
291;6870
291;6872
291;6874
291;6876
290;6878
291;6880
291;6882
291;6884
291;6886
291;6888
290;6890
291;6892
290;6894
291;6896
291;6898
289;6900
291;6902
291;6904
290;6906
290;6908
295;6910
291;6912
291;6914
293;6916
290;6918
291;6920
292;6922
292;6924
292;6926
292;6928
292;6930
292;6932
291;6934
292;6936
292;6938
292;6940
292;6942
292;6944
292;6946
292;6948
292;6950
293;6952
292;6955
292;6957
293;6959
293;6961
290;6963
293;6965
292;6967
293;6969
293;6971
292;6973
293;6975
293;6977
293;6979
293;6981
293;6983
293;6985
294;6987
294;6989
294;6991
294;6993
294;6995
294;6998
296;7000
295;7002
296;7004
296;7006
296;7008
295;7010
296;7012
297;7014
297;7016
297;7018
302;7020
299;7022
299;7024
299;7026
300;7028
301;7030
302;7032
302;7034
302;7036
302;7038
302;7040
303;7042
303;7044
303;7046
303;7048
303;7050
303;7052
303;7054
303;7056
303;7058
302;7060
303;7062
302;7064
302;7066
302;7068
301;7070
299;7072
300;7074
301;7076
300;7078
300;7080
298;7083
300;7085
299;7087
299;7089
298;7091
299;7093
299;7095
298;7097
298;7099
298;7101
298;7103
297;7105
297;7107
297;7109
297;7111
296;7113
296;7115
296;7117
295;7119
296;7121
295;7123
295;7126
296;7128
299;7130
295;7132
295;7134
295;7136
295;7138
295;7140
294;7142
294;7144
295;7146
294;7148
294;7150
294;7152
293;7154
292;7156
290;7158
288;7160
287;7162
285;7164
283;7166
282;7168
281;7170
281;7172
282;7174
283;7176
286;7178
290;7180
294;7182
304;7184
312;7186
320;7188
330;7190
339;7192
350;7194
358;7196
364;7198
367;7200
369;7202
367;7204
365;7206
363;7208
359;7211
356;7213
352;7215
349;7217
345;7219
342;7221
339;7223
336;7225
333;7227
329;7229
327;7231
323;7233
321;7235
318;7237
319;7239
314;7241
312;7243
309;7245
307;7247
305;7249
303;7251
301;7254
300;7256
298;7258
297;7260
295;7262
294;7264
292;7266
291;7268
290;7270
289;7272
288;7274
287;7276
286;7278
285;7280
285;7282
283;7284
284;7286
283;7288
282;7290
282;7292
281;7294
281;7296
280;7298
280;7300
280;7302
280;7304
279;7306
279;7308
279;7310
279;7312
279;7314
279;7316
279;7318
279;7320
279;7322
278;7324
279;7326
279;7328
278;7330
279;7332
278;7334
279;7336
279;7339
278;7341
278;7343
278;7345
279;7347
281;7349
279;7351
280;7353
280;7355
279;7357
280;7359
280;7361
280;7363
281;7365
281;7367
281;7369
281;7371
282;7373
282;7375
282;7377
283;7379
283;7382
283;7384
283;7386
284;7388
284;7390
284;7392
284;7394
285;7396
285;7398
286;7400
286;7402
287;7404
286;7406
287;7408
288;7410
288;7412
289;7414
291;7416
289;7418
289;7420
290;7422
291;7424
292;7426
292;7428
293;7430
293;7432
294;7434
294;7436
295;7438
296;7440
296;7442
297;7444
298;7446
298;7448
299;7450
299;7452
300;7454
301;7456
304;7458
303;7460
304;7462
304;7464
305;7467
305;7469
306;7471
307;7473
308;7475
308;7477
309;7479
309;7481
310;7483
310;7485
310;7487
310;7489
311;7491
311;7493
311;7495
310;7497
310;7499
311;7501
309;7503
310;7505
309;7507
309;7510
309;7512
308;7514
307;7516
307;7518
307;7520
306;7522
305;7524
306;7526
303;7528
303;7530
302;7532
302;7534
302;7536
301;7538
300;7540
299;7542
298;7544
298;7546
298;7548
298;7550
298;7552
297;7554
296;7556
295;7558
295;7560
295;7562
295;7564
294;7566
295;7568
294;7570
293;7572
293;7574
292;7576
292;7578
292;7580
293;7582
293;7584
293;7586
293;7588
293;7590
293;7592
292;7595
292;7597
293;7599
293;7601
292;7603
292;7605
293;7607
292;7609
293;7611
293;7613
293;7615
293;7617
293;7619
293;7621
293;7623
293;7625
292;7627
294;7629
293;7631
293;7633
293;7635
293;7638
294;7640
293;7642
293;7644
293;7646
294;7648
293;7650
293;7652
293;7654
294;7656
293;7658
293;7660
294;7662
294;7664
294;7666
294;7668
293;7670
293;7672
293;7674
293;7676
294;7678
294;7680
294;7682
293;7684
294;7686
293;7688
293;7690
293;7692
294;7694
294;7696
294;7698
294;7700
294;7702
294;7704
294;7706
294;7708
294;7710
294;7712
293;7714
294;7716
294;7718
294;7720
294;7723
294;7725
294;7727
294;7729
293;7731
293;7733
294;7735
293;7737
294;7739
294;7741
294;7743
292;7745
293;7747
294;7749
294;7751
294;7753
295;7755
294;7757
295;7759
295;7761
295;7763
295;7766
295;7768
296;7770
296;7772
296;7774
296;7776
297;7778
297;7780
297;7782
298;7784
299;7786
299;7788
300;7790
297;7792
300;7794
301;7796
301;7798
301;7800
300;7802
302;7804
302;7806
303;7808
302;7810
303;7812
302;7814
302;7816
303;7818
303;7820
303;7822
302;7824
301;7826
301;7828
300;7830
301;7832
301;7834
300;7836
300;7838
300;7840
299;7842
299;7844
299;7846
298;7848
299;7851
298;7853
296;7855
298;7857
298;7859
297;7861
297;7863
297;7865
297;7867
297;7869
296;7871
296;7873
296;7875
296;7877
296;7879
296;7881
296;7883
296;7885
295;7887
295;7889
295;7891
295;7894
295;7896
295;7898
295;7900
293;7902
295;7904
295;7906
295;7908
294;7910
295;7912
295;7914
294;7916
294;7918
294;7920
293;7922
291;7924
290;7926
288;7928
286;7930
285;7932
283;7934
282;7936
281;7938
282;7940
283;7942
285;7944
288;7946
293;7948
300;7950
307;7952
316;7954
325;7956
335;7958
345;7960
353;7962
357;7964
365;7966
368;7968
369;7970
366;7972
364;7974
361;7976
358;7979
355;7981
351;7983
348;7985
344;7987
340;7989
338;7991
335;7993
331;7995
329;7997
325;7999
322;8001
321;8003
318;8005
316;8007
313;8009
309;8011
309;8013
307;8015
305;8017
303;8019
304;8022
300;8024
298;8026
297;8028
295;8030
294;8032
292;8034
291;8036
291;8038
290;8040
289;8042
288;8044
287;8046
287;8048
286;8050
286;8052
285;8054
285;8056
283;8058
283;8060
283;8062
282;8064
282;8066
282;8068
282;8070
282;8072
279;8074
281;8076
280;8078
281;8080
281;8082
280;8084
281;8086
281;8088
280;8090
280;8092
280;8094
280;8096
280;8098
281;8100
281;8102
281;8104
281;8107
280;8109
281;8111
281;8113
281;8115
282;8117
282;8119
280;8121
282;8123
282;8125
282;8127
282;8129
286;8131
283;8133
283;8135
283;8137
283;8139
283;8141
285;8143
284;8145
285;8147
285;8150
285;8152
285;8154
285;8156
286;8158
287;8160
287;8162
287;8164
288;8166
287;8168
288;8170
288;8172
288;8174
288;8176
291;8178
290;8180
290;8182
291;8184
291;8186
292;8188
292;8190
292;8192
292;8194
294;8196
294;8198
295;8200
295;8202
295;8204
297;8206
297;8208
298;8210
299;8212
300;8214
300;8216
300;8218
302;8220
302;8222
303;8224
304;8226
304;8228
304;8230
306;8232
306;8235
306;8237
308;8239
312;8241
309;8243
309;8245
310;8247
310;8249
310;8251
310;8253
310;8255
311;8257
311;8259
311;8261
310;8263
311;8265
310;8267
309;8269
309;8271
309;8273
308;8275
307;8278
307;8280
306;8282
305;8284
304;8286
306;8288
304;8290
303;8292
301;8294
302;8296
301;8298
299;8300
299;8302
299;8304
298;8306
298;8308
297;8310
296;8312
295;8314
296;8316
295;8318
295;8320
294;8322
294;8324
294;8326
293;8328
293;8330
293;8332
293;8334
292;8336
292;8338
290;8340
292;8342
291;8344
292;8346
291;8348
295;8350
291;8352
291;8354
290;8356
291;8358
290;8360
291;8363
291;8365
291;8367
291;8369
291;8371
291;8373
291;8375
291;8377
291;8379
291;8381
292;8383
292;8385
291;8387
292;8389
292;8391
292;8393
292;8395
293;8397
292;8399
292;8401
292;8403
292;8406
292;8408
293;8410
293;8412
292;8414
292;8416
292;8418
292;8420
292;8422
292;8424
292;8426
292;8428
292;8430
292;8432
292;8434
292;8436
292;8438
292;8440
292;8442
292;8444
292;8446
292;8448
290;8450
292;8452
292;8454
292;8456
292;8458
296;8460
292;8462
292;8464
291;8466
291;8468
292;8470
292;8472
292;8474
292;8476
292;8478
292;8480
292;8482
292;8484
292;8486
291;8488
292;8491
293;8493
293;8495
292;8497
293;8499
293;8501
292;8503
292;8505
294;8507
293;8509
293;8511
292;8513
293;8515
293;8517
293;8519
293;8521
294;8523
294;8525
294;8527
293;8529
294;8531
294;8534
294;8536
294;8538
295;8540
295;8542
295;8544
296;8546
295;8548
296;8550
297;8552
297;8554
298;8556
299;8558
298;8560
299;8562
300;8564
300;8566
300;8568
301;8570
301;8572
300;8574
301;8576
301;8578
302;8580
302;8582
301;8584
302;8586
302;8588
302;8590
302;8592
302;8594
301;8596
300;8598
300;8600
300;8602
300;8604
300;8606
300;8608
299;8610
299;8612
299;8614
300;8616
299;8619
298;8621
299;8623
298;8625
297;8627
297;8629
298;8631
297;8633
297;8635
297;8637
297;8639
297;8641
297;8643
296;8645
296;8647
296;8649
296;8651
296;8653
295;8655
295;8657
296;8659
295;8662
296;8664
296;8666
295;8668
295;8670
294;8672
295;8674
294;8676
294;8678
295;8680
295;8682
293;8684
294;8686
293;8688
292;8690
290;8692
288;8694
287;8696
285;8698
283;8700
282;8702
281;8704
281;8706
282;8708
283;8710
287;8712
291;8714
297;8716
304;8718
313;8720
322;8722
331;8724
342;8726
350;8728
357;8730
362;8732
365;8734
366;8736
364;8738
362;8740
360;8742
356;8744
353;8747
349;8749
346;8751
343;8753
340;8755
337;8757
334;8759
331;8761
328;8763
325;8765
323;8767
320;8769
317;8771
315;8773
313;8775
311;8777
309;8779
307;8781
305;8783
304;8785
302;8787
300;8790
299;8792
295;8794
296;8796
294;8798
293;8800
292;8802
290;8804
290;8806
289;8808
288;8810
288;8812
286;8814
286;8816
285;8818
285;8820
284;8822
284;8824
283;8826
283;8828
282;8830
282;8832
282;8834
282;8836
282;8838
282;8840
282;8842
282;8844
281;8846
281;8848
280;8850
281;8852
281;8854
281;8856
280;8858
280;8860
280;8862
280;8864
281;8866
281;8868
281;8870
281;8872
281;8875
281;8877
281;8879
280;8881
281;8883
282;8885
282;8887
281;8889
281;8891
283;8893
282;8895
282;8897
283;8899
283;8901
281;8903
283;8905
283;8907
284;8909
284;8911
285;8913
285;8915
285;8918
286;8920
286;8922
286;8924
286;8926
286;8928
287;8930
287;8932
287;8934
288;8936
288;8938
288;8940
288;8942
289;8944
289;8946
290;8948
288;8950
291;8952
291;8954
291;8956
292;8958
292;8960
293;8962
294;8964
295;8966
294;8968
295;8970
296;8972
296;8974
297;8976
298;8978
298;8980
298;8982
299;8984
301;8986
302;8988
302;8990
302;8992
303;8994
304;8996
304;8998
305;9000
306;9003
306;9005
307;9007
308;9009
308;9011
306;9013
308;9015
308;9017
310;9019
310;9021
310;9023
310;9025
310;9027
310;9029
310;9031
309;9033
310;9035
308;9037
309;9039
309;9041
308;9043
307;9046
307;9048
307;9050
306;9052
305;9054
305;9056
305;9058
302;9060
303;9062
303;9064
303;9066
301;9068
303;9070
301;9072
301;9074
300;9076
299;9078
299;9080
298;9082
298;9084
297;9086
297;9088
297;9090
297;9092
296;9094
296;9096
296;9098
295;9100
295;9102
295;9104
295;9106
294;9108
294;9110
294;9112
294;9114
293;9116
294;9118
294;9120
292;9122
294;9124
293;9126
294;9128
294;9131
293;9133
294;9135
294;9137
294;9139
293;9141
294;9143
294;9145
295;9147
294;9149
294;9151
295;9153
295;9155
294;9157
294;9159
294;9161
294;9163
295;9165
295;9167
293;9169
294;9171
294;9174
295;9176
295;9178
298;9180
295;9182
296;9184
295;9186
295;9188
295;9190
295;9192
295;9194
295;9196
296;9198
296;9200
296;9202
296;9204
296;9206
296;9208
296;9210
296;9212
297;9214
297;9216
296;9218
297;9220
296;9222
297;9224
296;9226
297;9228
297;9230
295;9232
297;9234
297;9236
297;9238
298;9240
297;9242
298;9244
298;9246
298;9248
298;9250
298;9252
298;9254
299;9256
299;9259
299;9261
300;9263
300;9265
301;9267
301;9269
301;9271
301;9273
302;9275
302;9277
301;9279
303;9281
303;9283
304;9285
304;9287
308;9289
305;9291
305;9293
305;9295
305;9297
306;9299
306;9302
306;9304
306;9306
306;9308
306;9310
307;9312
305;9314
306;9316
305;9318
305;9320
305;9322
305;9324
304;9326
304;9328
304;9330
304;9332
304;9334
305;9336
303;9338
303;9340
302;9342
303;9344
302;9346
302;9348
302;9350
301;9352
302;9354
302;9356
301;9358
301;9360
300;9362
302;9364
300;9366
301;9368
301;9370
301;9372
301;9374
300;9376
300;9378
300;9380
299;9382
300;9384
300;9387
298;9389
300;9391
300;9393
300;9395
300;9397
303;9399
300;9401
299;9403
299;9405
299;9407
298;9409
298;9411
297;9413
296;9415
294;9417
292;9419
290;9421
289;9423
287;9425
287;9427
286;9430
288;9432
289;9434
292;9436
297;9438
302;9440
310;9442
318;9444
327;9446
336;9448
344;9450
352;9452
359;9454
363;9456
366;9458
366;9460
365;9462
363;9464
360;9466
356;9468
352;9470
351;9472
347;9474
344;9476
342;9478
338;9480
335;9482
333;9484
329;9486
326;9488
323;9490
321;9492
319;9494
317;9496
313;9498
313;9500
311;9502
308;9504
306;9506
310;9508
304;9510
302;9512
301;9515
299;9517
298;9519
296;9521
296;9523
295;9525
294;9527
293;9529
292;9531
290;9533
290;9535
288;9537
289;9539
288;9541
288;9543
286;9545
287;9547
286;9549
286;9551
285;9553
286;9555
284;9558
284;9560
284;9562
283;9564
282;9566
282;9568
282;9570
283;9572
282;9574
282;9576
281;9578
282;9580
282;9582
282;9584
281;9586
282;9588
282;9590
281;9592
281;9594
282;9596
282;9598
281;9600
281;9602
282;9604
282;9606
280;9608
282;9610
282;9612
282;9614
282;9616
286;9618
282;9620
283;9622
282;9624
282;9626
283;9628
282;9630
282;9632
283;9634
284;9636
284;9638
283;9640
283;9643
284;9645
285;9647
285;9649
285;9651
285;9653
286;9655
286;9657
286;9659
286;9661
287;9663
288;9665
287;9667
288;9669
287;9671
288;9673
289;9675
289;9677
289;9679
290;9681
290;9683
291;9686
291;9688
292;9690
293;9692
292;9694
293;9696
294;9698
294;9700
294;9702
295;9704
296;9706
296;9708
297;9710
298;9712
298;9714
299;9716
298;9718
301;9720
300;9722
301;9724
302;9726
305;9728
302;9730
303;9732
302;9734
303;9736
304;9738
303;9740
303;9742
304;9744
304;9746
304;9748
303;9750
304;9752
303;9754
303;9756
303;9758
303;9760
303;9762
302;9764
302;9766
301;9768
300;9771
300;9773
300;9775
299;9777
299;9779
297;9781
297;9783
296;9785
296;9787
296;9789
295;9791
295;9793
294;9795
294;9797
293;9799
292;9801
292;9803
291;9805
291;9807
291;9809
290;9811
290;9814
290;9816
290;9818
289;9820
289;9822
289;9824
289;9826
289;9828
288;9830
288;9832
288;9834
287;9836
288;9838
288;9840
286;9842
288;9844
288;9846
288;9848
287;9850
287;9852
288;9854
288;9856
288;9858
288;9860
287;9862
288;9864
287;9866
287;9868
288;9870
287;9872
287;9874
287;9876
288;9878
287;9880
287;9882
288;9884
288;9886
288;9888
287;9890
287;9892
287;9894
288;9896
287;9899
288;9901
288;9903
288;9905
288;9907
288;9909
288;9911
287;9913
288;9915
288;9917
288;9919
288;9921
287;9923
287;9925
287;9927
287;9929
288;9931
288;9933
288;9935
288;9937
287;9939
288;9942
287;9944
287;9946
288;9948
288;9950
286;9952
287;9954
287;9956
287;9958
288;9960
288;9962
288;9964
288;9966
288;9968
289;9970
288;9972
288;9974
288;9976
288;9978
288;9980
288;9982
288;9984
288;9986
289;9988
288;9990
289;9992
289;9994
288;9996
289;9998
288;10000
289;10002
289;10004
288;10006
288;10008
289;10010
289;10012
291;10014
289;10016
290;10018
290;10020
290;10022
290;10024
290;10027
290;10029
290;10031
290;10033
290;10035
290;10037
290;10039
291;10041
291;10043
291;10045
291;10047
291;10049
291;10051
291;10053
292;10055
292;10057
292;10059
289;10061
292;10063
292;10065
292;10067
292;10070
292;10072
292;10074
293;10076
292;10078
292;10080
292;10082
293;10084
292;10086
293;10088
293;10090
293;10092
293;10094
293;10096
292;10098
293;10100
293;10102
293;10104
293;10106
291;10108
293;10110
293;10112
293;10114
293;10116
293;10118
294;10120
294;10122
295;10124
294;10126
294;10128
293;10130
295;10132
294;10134
294;10136
295;10138
294;10140
294;10142
294;10144
294;10146
294;10148
295;10150
295;10152
295;10155
294;10157
295;10159
294;10161
295;10163
295;10165
295;10167
295;10169
293;10171
295;10173
295;10175
295;10177
295;10179
296;10181
295;10183
296;10185
296;10187
295;10189
295;10191
295;10193
295;10195
296;10198
295;10200
296;10202
296;10204
296;10206
296;10208
296;10210
295;10212
296;10214
296;10216
294;10218
295;10220
296;10222
296;10224
296;10226
300;10228
296;10230
296;10232
297;10234
296;10236
296;10238
296;10240
296;10242
297;10244
296;10246
296;10248
297;10250
296;10252
296;10254
296;10256
297;10258
297;10260
297;10262
297;10264
296;10266
296;10268
296;10270
296;10272
297;10274
297;10276
297;10278
295;10280
297;10283
297;10285
297;10287
297;10289
296;10291
297;10293
298;10295
297;10297
298;10299
297;10301
297;10303
298;10305
298;10307
298;10309
298;10311
297;10313
297;10315
298;10317
298;10319
298;10321
298;10323
298;10326
297;10328
298;10330
297;10332
298;10334
298;10336
302;10338
298;10340
298;10342
298;10344
299;10346
298;10348
298;10350
298;10352
299;10354
298;10356
298;10358
299;10360
298;10362
299;10364
299;10366
298;10368
299;10370
299;10372
299;10374
298;10376
299;10378
299;10380
298;10382
298;10384
299;10386
299;10388
296;10390
298;10392
299;10394
298;10396
298;10398
296;10400
299;10402
299;10404
298;10406
298;10408
299;10411
299;10413
298;10415
299;10417
299;10419
299;10421
299;10423
299;10425
299;10427
299;10429
299;10431
299;10433
299;10435
297;10437
299;10439
299;10441
299;10443
298;10445
302;10447
299;10449
299;10451
299;10454
299;10456
299;10458
298;10460
298;10462
299;10464
299;10466
299;10468
299;10470
299;10472
299;10474
299;10476
299;10478
300;10480
300;10482
300;10484
300;10486
299;10488
300;10490
300;10492
301;10494
301;10496
302;10498
300;10500
302;10502
303;10504
304;10506
304;10508
302;10510
304;10512
304;10514
304;10516
304;10518
304;10520
305;10522
305;10524
305;10526
305;10528
305;10530
304;10532
304;10534
303;10536
304;10539
304;10541
304;10543
303;10545
302;10547
303;10549
302;10551
301;10553
301;10555
305;10557
301;10559
301;10561
301;10563
301;10565
300;10567
299;10569
300;10571
300;10573
300;10575
299;10577
299;10579
299;10582
298;10584
299;10586
297;10588
298;10590
297;10592
297;10594
297;10596
297;10598
297;10600
296;10602
297;10604
296;10606
297;10608
296;10610
296;10612
296;10614
295;10616
295;10618
295;10620
294;10622
294;10624
292;10626
290;10628
288;10630
286;10632
285;10634
283;10636
283;10638
282;10640
282;10642
284;10644
288;10646
292;10648
298;10650
306;10652
314;10654
322;10656
332;10658
342;10660
350;10662
357;10664
366;10667
367;10669
368;10671
367;10673
365;10675
361;10677
358;10679
355;10681
352;10683
349;10685
345;10687
341;10689
338;10691
334;10693
332;10695
328;10697
325;10699
323;10701
321;10703
317;10705
315;10707
312;10710
309;10712
308;10714
306;10716
304;10718
301;10720
300;10722
298;10724
297;10726
294;10728
293;10730
292;10732
291;10734
289;10736
287;10738
287;10740
285;10742
285;10744
284;10746
283;10748
282;10750
282;10752
281;10754
280;10756
280;10758
280;10760
279;10762
279;10764
279;10766
278;10768
278;10770
278;10772
277;10774
279;10776
277;10778
277;10780
276;10782
276;10784
277;10786
277;10788
276;10790
276;10792
276;10795
276;10797
276;10799
276;10801
276;10803
277;10805
277;10807
277;10809
277;10811
278;10813
277;10815
278;10817
278;10819
278;10821
278;10823
278;10825
278;10827
278;10829
278;10831
278;10833
279;10835
278;10838
279;10840
280;10842
282;10844
280;10846
280;10848
281;10850
280;10852
280;10854
281;10856
282;10858
282;10860
281;10862
282;10864
282;10866
282;10868
283;10870
284;10872
284;10874
283;10876
284;10878
284;10880
284;10882
284;10884
287;10886
286;10888
286;10890
287;10892
286;10894
287;10896
288;10898
288;10900
289;10902
289;10904
290;10906
290;10908
290;10910
291;10912
291;10914
291;10916
293;10918
294;10920
295;10923
294;10925
295;10927
296;10929
296;10931
297;10933
298;10935
298;10937
299;10939
299;10941
300;10943
301;10945
302;10947
303;10949
303;10951
305;10953
304;10955
304;10957
304;10959
305;10961
307;10963
307;10966
307;10968
308;10970
307;10972
308;10974
309;10976
309;10978
309;10980
309;10982
309;10984
309;10986
309;10988
309;10990
309;10992
309;10994
308;10996
308;10998
305;11000
306;11002
307;11004
306;11006
306;11008
306;11010
305;11012
305;11014
304;11016
303;11018
303;11020
302;11022
302;11024
302;11026
301;11028
301;11030
301;11032
300;11034
299;11036
299;11038
298;11040
299;11042
298;11044
298;11046
296;11048
297;11051
297;11053
297;11055
296;11057
296;11059
296;11061
296;11063
296;11065
295;11067
295;11069
295;11071
295;11073
295;11075
295;11077
294;11079
294;11081
294;11083
294;11085
294;11087
294;11089
294;11091
294;11094
293;11096
294;11098
293;11100
293;11102
293;11104
293;11106
293;11108
291;11110
293;11112
293;11114
292;11116
292;11118
290;11120
293;11122
293;11124
292;11126
292;11128
292;11130
292;11132
292;11134
292;11136
292;11138
292;11140
292;11142
291;11144
291;11146
292;11148
292;11150
292;11152
292;11154
291;11156
291;11158
291;11160
291;11162
291;11164
291;11166
291;11168
292;11170
290;11172
291;11174
291;11176
291;11179
291;11181
291;11183
291;11185
291;11187
292;11189
291;11191
290;11193
291;11195
291;11197
291;11199
291;11201
291;11203
291;11205
292;11207
292;11209
291;11211
292;11213
291;11215
292;11217
290;11219
292;11222
292;11224
292;11226
292;11228
289;11230
292;11232
292;11234
291;11236
291;11238
292;11240
292;11242
293;11244
292;11246
292;11248
292;11250
292;11252
292;11254
292;11256
292;11258
293;11260
293;11262
293;11264
293;11266
292;11268
293;11270
292;11272
293;11274
293;11276
293;11278
293;11280
291;11282
293;11284
293;11286
294;11288
294;11290
293;11292
294;11294
294;11296
294;11298
294;11300
294;11302
294;11304
294;11307
295;11309
295;11311
295;11313
295;11315
295;11317
294;11319
294;11321
295;11323
296;11325
296;11327
293;11329
295;11331
295;11333
295;11335
295;11337
296;11339
296;11341
296;11343
295;11345
296;11347
296;11350
296;11352
296;11354
296;11356
296;11358
296;11360
296;11362
297;11364
296;11366
296;11368
297;11370
297;11372
297;11374
296;11376
297;11378
297;11380
298;11382
297;11384
299;11386
297;11388
297;11390
294;11392
296;11394
297;11396
297;11398
297;11400
297;11402
297;11404
297;11406
296;11408
297;11410
298;11412
297;11414
296;11416
297;11418
297;11420
298;11422
297;11424
297;11426
297;11428
297;11430
297;11432
298;11435
298;11437
295;11439
298;11441
297;11443
298;11445
298;11447
301;11449
298;11451
298;11453
297;11455
298;11457
298;11459
297;11461
298;11463
298;11465
298;11467
298;11469
298;11471
298;11473
297;11475
297;11478
299;11480
298;11482
298;11484
298;11486
298;11488
298;11490
298;11492
298;11494
300;11496
298;11498
299;11500
298;11502
299;11504
299;11506
298;11508
298;11510
299;11512
299;11514
299;11516
299;11518
298;11520
299;11522
299;11524
298;11526
299;11528
299;11530
298;11532
298;11534
298;11536
298;11538
298;11540
298;11542
298;11544
299;11546
297;11548
298;11550
298;11552
298;11554
298;11556
302;11558
299;11560
299;11563
298;11565
299;11567
298;11569
299;11571
299;11573
299;11575
299;11577
299;11579
298;11581
299;11583
298;11585
299;11587
298;11589
298;11591
299;11593
299;11595
298;11597
298;11599
299;11601
299;11603
300;11606
299;11608
299;11610
298;11612
299;11614
299;11616
298;11618
299;11620
299;11622
299;11624
299;11626
298;11628
299;11630
299;11632
299;11634
298;11636
299;11638
299;11640
298;11642
298;11644
299;11646
298;11648
298;11650
298;11652
298;11654
299;11656
297;11658
298;11660
299;11662
299;11664
299;11666
303;11668
299;11670
300;11672
300;11674
300;11676
300;11678
300;11680
301;11682
301;11684
302;11686
302;11688
303;11691
303;11693
303;11695
303;11697
304;11699
304;11701
304;11703
304;11705
305;11707
304;11709
305;11711
305;11713
305;11715
305;11717
305;11719
304;11721
304;11723
304;11725
303;11727
303;11729
303;11731
303;11734
303;11736
302;11738
303;11740
302;11742
301;11744
301;11746
301;11748
301;11750
301;11752
300;11754
300;11756
300;11758
300;11760
300;11762
299;11764
299;11766
299;11768
299;11770
298;11772
298;11774
298;11776
301;11778
298;11780
297;11782
297;11784
297;11786
296;11788
296;11790
297;11792
296;11794
296;11796
296;11798
296;11800
295;11802
295;11804
295;11806
294;11808
294;11810
293;11812
291;11814
289;11816
287;11819
285;11821
284;11823
284;11825
283;11827
283;11829
284;11831
286;11833
290;11835
297;11837
304;11839
312;11841
320;11843
329;11845
339;11847
348;11849
355;11851
361;11853
365;11855
367;11857
367;11859
364;11862
363;11864
359;11866
355;11868
352;11870
349;11872
346;11874
343;11876
340;11878
336;11880
334;11882
330;11884
327;11886
325;11888
322;11890
317;11892
317;11894
314;11896
313;11898
310;11900
308;11902
307;11904
306;11906
304;11908
302;11910
300;11912
298;11914
297;11916
296;11918
295;11920
293;11922
292;11924
290;11926
289;11928
289;11930
287;11932
288;11934
287;11936
286;11938
284;11940
284;11942
284;11944
283;11947
283;11949
283;11951
283;11953
283;11955
282;11957
281;11959
281;11961
281;11963
281;11965
281;11967
281;11969
280;11971
280;11973
279;11975
280;11977
280;11979
280;11981
280;11983
280;11985
280;11987
280;11990
280;11992
281;11994
280;11996
280;11998
280;12000
279;12002
280;12004
280;12006
280;12008
280;12010
281;12012
281;12014
281;12016
281;12018
281;12020
282;12022
282;12024
282;12026
282;12028
283;12030
283;12032
283;12034
283;12036
283;12038
283;12040
283;12042
284;12044
284;12046
285;12048
285;12050
285;12052
285;12054
286;12056
286;12058
286;12060
287;12062
287;12064
287;12066
287;12068
287;12070
288;12072
289;12075
289;12077
290;12079
290;12081
290;12083
291;12085
291;12087
291;12089
292;12091
293;12093
293;12095
293;12097
294;12099
294;12101
295;12103
295;12105
297;12107
297;12109
296;12111
299;12113
299;12115
299;12118
300;12120
301;12122
301;12124
302;12126
303;12128
303;12130
303;12132
303;12134
305;12136
305;12138
305;12140
306;12142
306;12144
306;12146
307;12148
306;12150
307;12152
308;12154
308;12156
305;12158
307;12160
308;12162
308;12164
308;12166
308;12168
308;12170
308;12172
309;12174
306;12176
306;12178
306;12180
305;12182
306;12184
305;12186
304;12188
304;12190
303;12192
302;12194
302;12196
301;12198
301;12200
301;12203
300;12205
300;12207
298;12209
299;12211
298;12213
298;12215
298;12217
297;12219
294;12221
296;12223
296;12225
295;12227
295;12229
295;12231
295;12233
295;12235
295;12237
294;12239
293;12241
294;12243
294;12246
294;12248
294;12250
293;12252
294;12254
293;12256
292;12258
293;12260
292;12262
293;12264
293;12266
291;12268
293;12270
293;12272
293;12274
292;12276
296;12278
292;12280
292;12282
292;12284
292;12286
291;12288
292;12290
292;12292
293;12294
292;12296
292;12298
293;12300
292;12302
292;12304
292;12306
292;12308
293;12310
292;12312
292;12314
292;12316
292;12318
293;12320
292;12322
293;12324
293;12326
293;12328
290;12331
292;12333
292;12335
293;12337
292;12339
292;12341
293;12343
293;12345
293;12347
292;12349
292;12351
292;12353
293;12355
293;12357
293;12359
293;12361
293;12363
293;12365
293;12367
293;12369
293;12371
294;12374
294;12376
292;12378
294;12380
294;12382
295;12384
294;12386
298;12388
295;12390
295;12392
295;12394
295;12396
294;12398
294;12400
295;12402
295;12404
295;12406
295;12408
295;12410
296;12412
296;12414
295;12416
295;12418
296;12420
296;12422
296;12424
295;12426
296;12428
295;12430
296;12432
296;12434
296;12436
296;12438
294;12440
295;12442
296;12444
295;12446
296;12448
294;12450
296;12452
297;12454
297;12456
296;12459
296;12461
296;12463
297;12465
297;12467
297;12469
297;12471
296;12473
297;12475
298;12477
297;12479
297;12481
297;12483
298;12485
296;12487
297;12489
297;12491
297;12493
297;12495
301;12497
298;12499
298;12502
298;12504
298;12506
298;12508
298;12510
297;12512
298;12514
298;12516
298;12518
299;12520
298;12522
299;12524
299;12526
299;12528
298;12530
299;12532
298;12534
298;12536
299;12538
299;12540
299;12542
298;12544
299;12546
299;12548
297;12550
299;12552
299;12554
299;12556
299;12558
297;12560
300;12562
300;12564
300;12566
300;12568
300;12570
300;12572
300;12574
301;12576
301;12578
302;12580
302;12582
302;12584
303;12587
303;12589
304;12591
304;12593
305;12595
304;12597
306;12599
306;12601
306;12603
306;12605
309;12607
306;12609
306;12611
306;12613
306;12615
306;12617
306;12619
306;12621
306;12623
305;12625
305;12627
305;12630
304;12632
304;12634
304;12636
304;12638
303;12640
303;12642
302;12644
303;12646
303;12648
302;12650
301;12652
302;12654
301;12656
301;12658
301;12660
300;12662
300;12664
300;12666
300;12668
300;12670
300;12672
300;12674
299;12676
299;12678
298;12680
299;12682
298;12684
299;12686
299;12688
298;12690
298;12692
297;12694
297;12696
297;12698
297;12700
298;12702
297;12704
296;12706
296;12708
297;12710
296;12712
296;12715
296;12717
293;12719
291;12721
289;12723
287;12725
286;12727
284;12729
284;12731
285;12733
287;12735
289;12737
294;12739
298;12741
306;12743
314;12745
322;12747
331;12749
340;12751
348;12753
354;12755
359;12758
363;12760
365;12762
364;12764
361;12766
359;12768
355;12770
352;12772
348;12774
345;12776
342;12778
340;12780
336;12782
335;12784
331;12786
328;12788
325;12790
322;12792
320;12794
318;12796
315;12798
315;12800
312;12802
310;12804
309;12806
307;12808
304;12810
303;12812
302;12814
300;12816
299;12818
298;12820
296;12822
296;12824
296;12826
294;12828
293;12830
291;12832
291;12834
290;12836
289;12838
289;12840
288;12843
288;12845
287;12847
286;12849
287;12851
287;12853
286;12855
285;12857
285;12859
285;12861
284;12863
284;12865
284;12867
284;12869
284;12871
284;12873
284;12875
284;12877
283;12879
283;12881
283;12883
283;12886
283;12888
283;12890
283;12892
285;12894
283;12896
282;12898
282;12900
282;12902
283;12904
283;12906
284;12908
284;12910
284;12912
284;12914
284;12916
284;12918
284;12920
284;12922
285;12924
284;12926
285;12928
285;12930
285;12932
285;12934
287;12936
286;12938
286;12940
287;12942
287;12944
287;12946
287;12948
288;12950
288;12952
288;12954
288;12956
289;12958
289;12960
289;12962
290;12964
290;12966
290;12968
291;12971
291;12973
291;12975
292;12977
293;12979
293;12981
293;12983
293;12985
294;12987
294;12989
295;12991
295;12993
295;12995
297;12997
297;12999
298;13001
299;13003
299;13005
300;13007
300;13009
301;13011
300;13014
302;13016
302;13018
302;13020
304;13022
304;13024
304;13026
305;13028
306;13030
306;13032
307;13034
307;13036
307;13038
308;13040
309;13042
309;13044
309;13046
310;13048
307;13050
310;13052
310;13054
310;13056
310;13058
310;13060
310;13062
310;13064
310;13066
310;13068
309;13070
309;13072
308;13074
308;13076
308;13078
307;13080
306;13082
306;13084
305;13086
305;13088
305;13090
304;13092
303;13094
303;13096
302;13099
301;13101
301;13103
300;13105
299;13107
299;13109
299;13111
297;13113
298;13115
296;13117
296;13119
297;13121
295;13123
296;13125
296;13127
295;13129
294;13131
295;13133
294;13135
295;13137
294;13139
294;13142
294;13144
293;13146
294;13148
294;13150
293;13152
293;13154
293;13156
293;13158
291;13160
292;13162
293;13164
293;13166
293;13168
292;13170
293;13172
294;13174
293;13176
293;13178
293;13180
294;13182
293;13184
294;13186
294;13188
294;13190
295;13192
295;13194
294;13196
294;13198
294;13200
295;13202
295;13204
295;13206
295;13208
295;13210
294;13212
295;13214
295;13216
295;13218
295;13220
294;13222
296;13224
296;13227
295;13229
296;13231
295;13233
296;13235
296;13237
296;13239
296;13241
295;13243
296;13245
296;13247
297;13249
297;13251
297;13253
297;13255
297;13257
297;13259
297;13261
297;13263
298;13265
298;13267
295;13270
297;13272
297;13274
298;13276
298;13278
297;13280
298;13282
298;13284
297;13286
298;13288
298;13290
299;13292
298;13294
299;13296
299;13298
299;13300
300;13302
300;13304
300;13306
301;13308
301;13310
302;13312
302;13314
302;13316
302;13318
302;13320
303;13322
303;13324
304;13326
304;13328
305;13330
303;13332
304;13334
305;13336
305;13338
305;13340
305;13342
306;13344
305;13346
304;13348
305;13350
305;13352
305;13355
304;13357
304;13359
304;13361
304;13363
302;13365
302;13367
302;13369
302;13371
301;13373
302;13375
302;13377
300;13379
301;13381
301;13383
301;13385
301;13387
303;13389
300;13391
300;13393
300;13395
300;13398
299;13400
300;13402
299;13404
299;13406
299;13408
299;13410
298;13412
299;13414
298;13416
299;13418
298;13420
299;13422
298;13424
298;13426
298;13428
299;13430
298;13432
298;13434
300;13436
298;13438
298;13440
295;13442
297;13444
296;13446
295;13448
294;13450
291;13452
290;13454
289;13456
287;13458
287;13460
287;13462
288;13464
290;13466
293;13468
297;13470
303;13472
309;13474
317;13476
323;13478
330;13480
339;13483
346;13485
352;13487
355;13489
360;13491
360;13493
360;13495
357;13497
359;13499
352;13501
349;13503
345;13505
342;13507
339;13509
336;13511
333;13513
331;13515
328;13517
325;13519
322;13521
321;13523
318;13526
316;13528
314;13530
312;13532
311;13534
309;13536
307;13538
305;13540
304;13542
303;13544
303;13546
301;13548
299;13550
297;13552
297;13554
296;13556
295;13558
294;13560
294;13562
293;13564
292;13566
291;13568
291;13570
291;13572
290;13574
289;13576
289;13578
288;13580
288;13582
286;13584
286;13586
286;13588
287;13590
286;13592
286;13594
285;13596
284;13598
285;13600
285;13602
284;13604
284;13606
289;13608
285;13611
284;13613
285;13615
284;13617
285;13619
284;13621
284;13623
284;13625
284;13627
284;13629
284;13631
284;13633
283;13635
284;13637
285;13639
284;13641
284;13643
285;13645
284;13647
284;13649
284;13651
284;13654
286;13656
285;13658
285;13660
285;13662
286;13664
286;13666
287;13668
286;13670
287;13672
287;13674
287;13676
287;13678
287;13680
288;13682
289;13684
288;13686
289;13688
289;13690
289;13692
289;13694
289;13696
289;13698
290;13700
291;13702
291;13704
292;13706
291;13708
292;13710
293;13712
293;13714
294;13716
298;13718
295;13720
296;13722
297;13724
298;13726
298;13728
298;13730
298;13732
299;13734
300;13736
300;13739
301;13741
302;13743
303;13745
302;13747
303;13749
304;13751
305;13753
304;13755
305;13757
306;13759
306;13761
307;13763
308;13765
308;13767
308;13769
308;13771
308;13773
309;13775
308;13777
308;13779
308;13782
308;13784
308;13786
307;13788
306;13790
306;13792
305;13794
306;13796
305;13798
304;13800
304;13802
303;13804
302;13806
301;13808
300;13810
300;13812
300;13814
299;13816
298;13818
297;13820
297;13822
297;13824
295;13826
298;13828
295;13830
294;13832
293;13834
292;13836
292;13838
292;13840
290;13842
291;13844
291;13846
290;13848
290;13850
289;13852
288;13854
288;13856
288;13858
288;13860
288;13862
288;13864
288;13867
287;13869
287;13871
287;13873
287;13875
287;13877
287;13879
286;13881
288;13883
287;13885
287;13887
287;13889
287;13891
287;13893
287;13895
287;13897
287;13899
287;13901
287;13903
288;13905
288;13907
288;13910
288;13912
287;13914
288;13916
288;13918
289;13920
289;13922
289;13924
289;13926
289;13928
289;13930
289;13932
289;13934
290;13936
290;13938
290;13940
288;13942
291;13944
291;13946
291;13948
291;13950
290;13952
291;13954
291;13956
291;13958
291;13960
292;13962
292;13964
292;13966
292;13968
292;13970
292;13972
293;13974
291;13976
293;13978
293;13980
293;13982
293;13984
294;13986
294;13988
294;13990
294;13992
294;13995
294;13997
295;13999
296;14001
296;14003
298;14005
296;14007
298;14009
298;14011
298;14013
299;14015
299;14017
300;14019
300;14021
300;14023
301;14025
301;14027
302;14029
302;14031
302;14033
302;14035
302;14038
302;14040
301;14042
301;14044
301;14046
302;14048
301;14050
299;14052
301;14054
300;14056
300;14058
300;14060
300;14062
300;14064
299;14066
298;14068
299;14070
298;14072
299;14074
298;14076
298;14078
298;14080
298;14082
298;14084
298;14086
297;14088
297;14090
296;14092
297;14094
297;14096
296;14098
297;14100
295;14102
297;14104
296;14106
296;14108
296;14110
296;14112
297;14114
295;14116
295;14118
295;14120
294;14123
294;14125
295;14127
295;14129
295;14131
295;14133
295;14135
295;14137
295;14139
294;14141
293;14143
291;14145
289;14147
289;14149
287;14151
287;14153
285;14155
285;14157
286;14159
285;14161
290;14163
294;14166
298;14168
304;14170
310;14172
319;14174
326;14176
334;14178
342;14180
349;14182
353;14184
357;14186
359;14188
359;14190
356;14192
353;14194
351;14196
347;14198
344;14200
341;14202
338;14204
335;14206
334;14208
331;14210
327;14212
325;14214
321;14216
319;14218
317;14220
315;14222
313;14224
311;14226
309;14228
307;14230
306;14232
304;14234
302;14236
301;14238
300;14240
298;14242
296;14244
296;14246
294;14248
293;14251
292;14253
291;14255
291;14257
289;14259
289;14261
288;14263
287;14265
287;14267
286;14269
282;14271
285;14273
284;14275
285;14277
284;14279
281;14281
283;14283
283;14285
282;14287
282;14289
282;14291
281;14294
281;14296
281;14298
281;14300
281;14302
281;14304
280;14306
280;14308
279;14310
280;14312
280;14314
280;14316
280;14318
279;14320
280;14322
280;14324
281;14326
283;14328
280;14330
280;14332
280;14334
279;14336
280;14338
280;14340
280;14342
281;14344
281;14346
281;14348
280;14350
281;14352
282;14354
281;14356
281;14358
282;14360
282;14362
283;14364
282;14366
282;14368
282;14370
282;14372
282;14374
283;14376
283;14379
281;14381
284;14383
285;14385
284;14387
284;14389
283;14391
285;14393
285;14395
286;14397
286;14399
286;14401
287;14403
287;14405
288;14407
288;14409
288;14411
288;14413
288;14415
289;14417
291;14419
291;14422
291;14424
292;14426
291;14428
292;14430
293;14432
295;14434
295;14436
298;14438
295;14440
296;14442
297;14444
296;14446
297;14448
297;14450
298;14452
299;14454
299;14456
299;14458
299;14460
299;14462
301;14464
300;14466
301;14468
301;14470
301;14472
300;14474
301;14476
300;14478
300;14480
300;14482
299;14484
299;14486
298;14488
296;14490
297;14492
296;14494
296;14496
296;14498
293;14500
294;14502
294;14504
292;14507
291;14509
291;14511
290;14513
290;14515
289;14517
288;14519
288;14521
287;14523
286;14525
285;14527
285;14529
284;14531
284;14533
284;14535
282;14537
282;14539
282;14541
281;14543
281;14545
284;14547
281;14550
280;14552
280;14554
279;14556
280;14558
280;14560
279;14562
279;14564
279;14566
279;14568
279;14570
278;14572
278;14574
278;14576
279;14578
279;14580
279;14582
278;14584
279;14586
279;14588
280;14590
279;14592
279;14594
279;14596
279;14598
278;14600
280;14602
279;14604
279;14606
279;14608
281;14610
280;14612
280;14614
280;14616
280;14618
280;14620
280;14622
281;14624
281;14626
281;14628
281;14630
281;14632
282;14635
282;14637
281;14639
282;14641
282;14643
282;14645
281;14647
281;14649
282;14651
282;14653
283;14655
285;14657
283;14659
283;14661
283;14663
282;14665
283;14667
283;14669
283;14671
284;14673
284;14675
284;14678
283;14680
284;14682
284;14684
284;14686
284;14688
284;14690
284;14692
285;14694
284;14696
284;14698
284;14700
285;14702
285;14704
285;14706
285;14708
284;14710
285;14712
286;14714
286;14716
286;14718
290;14720
287;14722
288;14724
288;14726
289;14728
289;14730
289;14732
289;14734
290;14736
291;14738
291;14740
292;14742
292;14744
292;14746
292;14748
293;14750
293;14752
293;14754
293;14756
293;14758
293;14760
293;14763
293;14765
295;14767
293;14769
293;14771
292;14773
292;14775
292;14777
292;14779
292;14781
292;14783
292;14785
291;14787
290;14789
291;14791
290;14793
290;14795
290;14797
290;14799
290;14801
289;14803
289;14806
290;14808
290;14810
288;14812
289;14814
289;14816
289;14818
289;14820
288;14822
288;14824
288;14826
287;14828
288;14830
288;14832
289;14834
288;14836
287;14838
288;14840
287;14842
287;14844
288;14846
288;14848
288;14850
288;14852
288;14854
287;14856
288;14858
287;14860
287;14862
287;14864
286;14866
285;14868
284;14870
282;14872
281;14874
280;14876
279;14878
278;14880
278;14882
278;14884
279;14886
282;14888
286;14891
293;14893
300;14895
308;14897
315;14899
323;14901
333;14903
341;14905
348;14907
355;14909
359;14911
360;14913
360;14915
358;14917
355;14919
352;14921
349;14923
345;14925
342;14927
338;14929
335;14931
331;14934
328;14936
324;14938
321;14940
319;14942
315;14944
313;14946
311;14948
308;14950
306;14952
304;14954
302;14956
300;14958
298;14960
296;14962
295;14964
292;14966
292;14968
290;14970
289;14972
288;14974
287;14976
286;14978
284;14980
283;14982
283;14984
282;14986
281;14988
280;14990
279;14992
279;14994
279;14996
277;14998
277;15000
276;15002
276;15004
276;15006
275;15008
275;15010
274;15012
274;15014
274;15016
274;15019
274;15021
274;15023
273;15025
273;15027
273;15029
273;15031
273;15033
273;15035
273;15037
274;15039
274;15041
273;15043
273;15045
273;15047
274;15049
274;15051
272;15053
274;15055
274;15057
275;15059
274;15062
275;15064
275;15066
275;15068
275;15070
275;15072
275;15074
276;15076
276;15078
276;15080
277;15082
277;15084
277;15086
277;15088
277;15090
278;15092
278;15094
279;15096
279;15098
277;15100
279;15102
279;15104
280;15106
280;15108
281;15110
281;15112
282;15114
282;15116
283;15118
283;15120
283;15122
285;15124
285;15126
285;15128
286;15130
286;15132
287;15134
287;15136
288;15138
288;15140
290;15142
290;15144
291;15147
292;15149
293;15151
293;15153
293;15155
294;15157
295;15159
296;15161
294;15163
297;15165
298;15167
298;15169
299;15171
301;15173
301;15175
302;15177
303;15179
304;15181
303;15183
304;15185
304;15187
305;15190
306;15192
306;15194
307;15196
307;15198
306;15200
306;15202
306;15204
307;15206
307;15208
304;15210
306;15212
305;15214
305;15216
305;15218
306;15220
304;15222
303;15224
303;15226
302;15228
301;15230
300;15232
300;15234
299;15236
299;15238
298;15240
297;15242
297;15244
296;15246
296;15248
295;15250
295;15252
294;15254
294;15256
292;15258
291;15260
292;15262
292;15264
291;15266
291;15268
291;15270
288;15272
290;15275
290;15277
289;15279
289;15281
289;15283
289;15285
289;15287
289;15289
289;15291
289;15293
288;15295
288;15297
288;15299
288;15301
288;15303
288;15305
288;15307
288;15309
288;15311
288;15313
289;15315
289;15318
287;15320
289;15322
290;15324
289;15326
290;15328
293;15330
290;15332
290;15334
290;15336
290;15338
290;15340
290;15342
290;15344
291;15346
291;15348
291;15350
291;15352
290;15354
291;15356
291;15358
290;15360
291;15362
291;15364
291;15366
291;15368
291;15370
291;15372
291;15374
291;15376
291;15378
291;15380
289;15382
291;15384
291;15386
291;15388
291;15390
290;15392
291;15394
291;15396
292;15398
291;15400
292;15403
292;15405
292;15407
292;15409
292;15411
292;15413
292;15415
291;15417
291;15419
292;15421
291;15423
292;15425
292;15427
290;15429
292;15431
293;15433
292;15435
292;15437
297;15439
293;15441
293;15443
293;15446
292;15448
292;15450
292;15452
293;15454
293;15456
294;15458
294;15460
294;15462
294;15464
294;15466
294;15468
293;15470
294;15472
294;15474
294;15476
294;15478
294;15480
294;15482
294;15484
295;15486
294;15488
295;15490
292;15492
295;15494
294;15496
295;15498
296;15500
294;15502
295;15504
295;15506
295;15508
295;15510
295;15512
296;15514
295;15516
296;15518
296;15520
296;15522
296;15524
296;15526
296;15528
295;15531
296;15533
296;15535
296;15537
295;15539
295;15541
296;15543
297;15545
296;15547
300;15549
297;15551
297;15553
297;15555
296;15557
297;15559
297;15561
297;15563
297;15565
297;15567
297;15569
296;15571
297;15574
297;15576
298;15578
297;15580
297;15582
297;15584
297;15586
298;15588
298;15590
297;15592
297;15594
298;15596
298;15598
298;15600
297;15602
297;15604
298;15606
298;15608
297;15610
298;15612
298;15614
298;15616
298;15618
298;15620
298;15622
298;15624
298;15626
299;15628
298;15630
299;15632
298;15634
298;15636
298;15638
298;15640
298;15642
299;15644
299;15646
297;15648
299;15650
299;15652
299;15654
299;15656
302;15659
299;15661
299;15663
298;15665
298;15667
299;15669
298;15671
299;15673
299;15675
299;15677
299;15679
299;15681
299;15683
299;15685
299;15687
299;15689
299;15691
299;15693
299;15695
299;15697
299;15699
299;15702
299;15704
300;15706
299;15708
299;15710
299;15712
299;15714
299;15716
299;15718
299;15720
299;15722
299;15724
299;15726
299;15728
299;15730
299;15732
298;15734
299;15736
299;15738
299;15740
299;15742
299;15744
299;15746
299;15748
299;15750
299;15752
299;15754
299;15756
297;15758
298;15760
298;15762
299;15764
298;15766
301;15768
299;15770
299;15772
299;15774
299;15776
298;15778
298;15780
299;15782
299;15784
299;15787
299;15789
298;15791
299;15793
298;15795
298;15797
298;15799
299;15801
299;15803
299;15805
299;15807
298;15809
298;15811
298;15813
299;15815
299;15817
299;15819
298;15821
298;15823
298;15825
298;15827
299;15830
298;15832
298;15834
299;15836
298;15838
298;15840
298;15842
298;15844
298;15846
298;15848
298;15850
298;15852
298;15854
299;15856
298;15858
297;15860
298;15862
298;15864
298;15866
298;15868
298;15870
298;15872
298;15874
298;15876
300;15878
298;15880
298;15882
297;15884
298;15886
298;15888
299;15890
298;15892
298;15894
298;15896
298;15898
298;15900
298;15902
298;15904
298;15906
298;15908
298;15910
298;15912
298;15915
298;15917
298;15919
298;15921
298;15923
298;15925
298;15927
298;15929
298;15931
298;15933
297;15935
297;15937
298;15939
298;15941
298;15943
299;15945
298;15947
298;15949
298;15951
297;15953
299;15955
298;15958
298;15960
298;15962
298;15964
298;15966
298;15968
298;15970
298;15972
298;15974
298;15976
297;15978
297;15980
297;15982
298;15984
298;15986
298;15988
298;15990
296;15992
298;15994
298;15996
297;15998
298;16000
297;16002
298;16004
298;16006
298;16008
297;16010
297;16012
298;16014
297;16016
297;16018
298;16020
298;16022
298;16024
297;16026
297;16028
297;16030
297;16032
297;16034
297;16036
298;16038
297;16040
298;16043
298;16045
298;16047
298;16049
298;16051
299;16053
300;16055
298;16057
299;16059
298;16061
300;16063
299;16065
300;16067
301;16069
301;16071
301;16073
302;16075
302;16077
303;16079
303;16081
303;16083
304;16086
303;16088
304;16090
304;16092
303;16094
303;16096
304;16098
304;16100
301;16102
304;16104
303;16106
303;16108
303;16110
301;16112
302;16114
302;16116
301;16118
301;16120
301;16122
301;16124
300;16126
300;16128
300;16130
300;16132
301;16134
300;16136
299;16138
299;16140
299;16142
299;16144
298;16146
298;16148
298;16150
297;16152
297;16154
297;16156
297;16158
297;16160
297;16162
296;16164
296;16166
296;16168
296;16171
295;16173
295;16175
295;16177
295;16179
295;16181
295;16183
295;16185
295;16187
294;16189
294;16191
294;16193
293;16195
293;16197
291;16199
289;16201
287;16203
286;16205
284;16207
283;16209
280;16211
282;16214
282;16216
285;16218
288;16220
291;16222
300;16224
308;16226
316;16228
324;16230
334;16232
343;16234
352;16236
359;16238
365;16240
368;16242
368;16244
367;16246
365;16248
362;16250
358;16252
356;16254
354;16256
351;16258
346;16260
344;16262
341;16264
337;16266
333;16268
331;16270
328;16272
323;16274
322;16276
319;16278
317;16280
315;16282
312;16284
310;16286
308;16288
306;16290
303;16292
302;16294
300;16296
298;16299
297;16301
295;16303
294;16305
292;16307
291;16309
290;16311
289;16313
288;16315
287;16317
286;16319
283;16321
284;16323
284;16325
283;16327
282;16329
280;16331
281;16333
281;16335
280;16337
280;16339
280;16342
279;16344
279;16346
279;16348
279;16350
279;16352
278;16354
278;16356
279;16358
278;16360
278;16362
279;16364
279;16366
278;16368
278;16370
279;16372
278;16374
279;16376
282;16378
279;16380
279;16382
277;16384
279;16386
279;16388
279;16390
279;16392
280;16394
280;16396
280;16398
281;16400
280;16402
280;16404
282;16406
281;16408
281;16410
282;16412
282;16414
282;16416
282;16418
282;16420
283;16422
283;16424
284;16427
284;16429
282;16431
284;16433
285;16435
284;16437
285;16439
286;16441
286;16443
286;16445
287;16447
287;16449
287;16451
288;16453
288;16455
288;16457
289;16459
289;16461
289;16463
289;16465
290;16467
290;16470
291;16472
292;16474
292;16476
291;16478
294;16480
294;16482
295;16484
295;16486
298;16488
296;16490
297;16492
297;16494
297;16496
298;16498
299;16500
300;16502
300;16504
301;16506
302;16508
302;16510
302;16512
302;16514
304;16516
305;16518
305;16520
306;16522
306;16524
307;16526
308;16528
308;16530
308;16532
309;16534
310;16536
310;16538
308;16540
311;16542
312;16544
312;16546
312;16548
315;16550
313;16552
313;16555
313;16557
313;16559
312;16561
313;16563
312;16565
312;16567
312;16569
312;16571
311;16573
310;16575
311;16577
310;16579
310;16581
309;16583
309;16585
308;16587
307;16589
306;16591
307;16593
307;16595
308;16598
305;16600
305;16602
304;16604
304;16606
303;16608
302;16610
302;16612
302;16614
302;16616
301;16618
301;16620
300;16622
300;16624
299;16626
299;16628
299;16630
299;16632
298;16634
298;16636
297;16638
298;16640
297;16642
298;16644
297;16646
297;16648
295;16650
296;16652
296;16654
296;16656
297;16658
300;16660
296;16662
296;16664
295;16666
295;16668
295;16670
295;16672
295;16674
295;16676
295;16678
295;16680
295;16683
295;16685
295;16687
294;16689
294;16691
295;16693
294;16695
294;16697
294;16699
295;16701
293;16703
293;16705
295;16707
294;16709
294;16711
294;16713
293;16715
293;16717
294;16719
294;16721
293;16723
293;16726
293;16728
293;16730
292;16732
292;16734
292;16736
292;16738
293;16740
293;16742
293;16744
292;16746
293;16748
292;16750
292;16752
293;16754
292;16756
292;16758
293;16760
292;16762
291;16764
293;16766
292;16768
296;16770
293;16772
292;16774
292;16776
292;16778
293;16780
291;16782
292;16784
292;16786
292;16788
292;16790
292;16792
292;16794
292;16796
292;16798
293;16800
293;16802
293;16804
293;16806
292;16808
292;16811
292;16813
292;16815
294;16817
293;16819
293;16821
292;16823
293;16825
293;16827
293;16829
293;16831
293;16833
293;16835
294;16837
293;16839
294;16841
293;16843
294;16845
294;16847
294;16849
294;16851
294;16854
294;16856
295;16858
295;16860
295;16862
295;16864
295;16866
295;16868
295;16870
295;16872
295;16874
295;16876
295;16878
295;16880
295;16882
295;16884
296;16886
295;16888
296;16890
296;16892
295;16894
296;16896
296;16898
296;16900
295;16902
295;16904
296;16906
295;16908
295;16910
296;16912
296;16914
297;16916
296;16918
296;16920
296;16922
296;16924
297;16926
297;16928
297;16930
297;16932
297;16934
297;16936
296;16939
296;16941
297;16943
297;16945
297;16947
297;16949
297;16951
297;16953
297;16955
297;16957
297;16959
297;16961
297;16963
297;16965
297;16967
297;16969
297;16971
298;16973
298;16975
298;16977
298;16979
298;16982
298;16984
298;16986
298;16988
298;16990
298;16992
296;16994
298;16996
298;16998
298;17000
298;17002
298;17004
299;17006
299;17008
298;17010
298;17012
299;17014
298;17016
298;17018
299;17020
299;17022
299;17024
298;17026
298;17028
298;17030
298;17032
299;17034
299;17036
299;17038
299;17040
298;17042
298;17044
298;17046
298;17048
299;17050
299;17052
299;17054
299;17056
299;17058
299;17060
299;17062
298;17064
298;17067
299;17069
299;17071
298;17073
299;17075
298;17077
299;17079
299;17081
299;17083
299;17085
298;17087
298;17089
298;17091
298;17093
299;17095
298;17097
298;17099
298;17101
296;17103
298;17105
299;17107
298;17110
298;17112
298;17114
298;17116
298;17118
298;17120
297;17122
297;17124
297;17126
297;17128
298;17130
298;17132
298;17134
297;17136
298;17138
297;17140
297;17142
297;17144
298;17146
298;17148
295;17150
298;17152
298;17154
297;17156
297;17158
297;17160
297;17162
297;17164
298;17166
297;17168
297;17170
298;17172
298;17174
297;17176
297;17178
297;17180
297;17182
296;17184
297;17186
298;17188
297;17190
298;17192
298;17195
298;17197
297;17199
297;17201
297;17203
298;17205
297;17207
298;17209
298;17211
295;17213
297;17215
298;17217
298;17219
298;17221
298;17223
298;17225
298;17227
298;17229
298;17231
297;17233
298;17235
298;17238
298;17240
299;17242
298;17244
299;17246
299;17248
299;17250
299;17252
298;17254
299;17256
299;17258
297;17260
299;17262
300;17264
299;17266
299;17268
303;17270
300;17272
300;17274
301;17276
301;17278
301;17280
302;17282
302;17284
303;17286
303;17288
304;17290
304;17292
304;17294
304;17296
304;17298
304;17300
304;17302
305;17304
305;17306
305;17308
304;17310
304;17312
304;17314
303;17316
304;17318
304;17320
301;17323
303;17325
303;17327
302;17329
302;17331
302;17333
301;17335
301;17337
300;17339
300;17341
300;17343
300;17345
300;17347
300;17349
299;17351
299;17353
299;17355
298;17357
298;17359
298;17361
298;17363
298;17366
297;17368
296;17370
297;17372
297;17374
297;17376
297;17378
300;17380
296;17382
296;17384
295;17386
295;17388
296;17390
294;17392
294;17394
295;17396
295;17398
294;17400
294;17402
293;17404
291;17406
292;17408
291;17410
288;17412
287;17414
285;17416
283;17418
282;17420
281;17422
281;17424
282;17426
285;17428
289;17430
292;17432
302;17434
310;17436
318;17438
326;17440
336;17442
345;17444
353;17446
360;17448
363;17451
365;17453
365;17455
364;17457
362;17459
359;17461
355;17463
351;17465
348;17467
345;17469
341;17471
338;17473
335;17475
332;17477
328;17479
326;17481
323;17483
320;17485
318;17487
319;17489
313;17491
311;17494
308;17496
306;17498
304;17500
302;17502
301;17504
299;17506
298;17508
296;17510
294;17512
293;17514
292;17516
291;17518
290;17520
289;17522
288;17524
287;17526
286;17528
285;17530
284;17532
284;17534
284;17536
283;17538
282;17540
280;17542
281;17544
280;17546
280;17548
280;17550
277;17552
280;17554
279;17556
279;17558
279;17560
279;17562
278;17564
279;17566
279;17568
279;17570
279;17572
278;17574
278;17576
278;17579
278;17581
278;17583
278;17585
279;17587
278;17589
278;17591
278;17593
278;17595
278;17597
282;17599
279;17601
279;17603
279;17605
279;17607
280;17609
280;17611
280;17613
280;17615
281;17617
281;17619
280;17622
281;17624
281;17626
281;17628
282;17630
282;17632
282;17634
283;17636
283;17638
283;17640
283;17642
284;17644
285;17646
285;17648
285;17650
284;17652
285;17654
285;17656
286;17658
287;17660
287;17662
287;17664
288;17666
288;17668
288;17670
288;17672
289;17674
289;17676
290;17678
290;17680
291;17682
291;17684
291;17686
292;17688
293;17690
293;17692
294;17694
294;17696
295;17698
295;17700
296;17702
296;17704
297;17707
301;17709
299;17711
299;17713
299;17715
300;17717
301;17719
302;17721
302;17723
303;17725
304;17727
304;17729
304;17731
304;17733
305;17735
306;17737
307;17739
307;17741
307;17743
308;17745
308;17747
308;17750
308;17752
308;17754
309;17756
308;17758
308;17760
309;17762
308;17764
308;17766
307;17768
308;17770
307;17772
307;17774
307;17776
306;17778
306;17780
306;17782
305;17784
304;17786
304;17788
303;17790
303;17792
302;17794
300;17796
300;17798
299;17800
299;17802
299;17804
299;17806
298;17808
298;17810
297;17812
296;17814
296;17816
298;17818
295;17820
295;17822
295;17824
295;17826
294;17828
293;17830
294;17832
293;17835
293;17837
293;17839
292;17841
292;17843
291;17845
291;17847
292;17849
292;17851
292;17853
292;17855
291;17857
291;17859
291;17861
291;17863
292;17865
291;17867
291;17869
291;17871
291;17873
291;17875
291;17878
291;17880
291;17882
291;17884
293;17886
291;17888
291;17890
291;17892
291;17894
291;17896
292;17898
292;17900
291;17902
291;17904
291;17906
292;17908
291;17910
292;17912
292;17914
292;17916
292;17918
292;17920
292;17922
292;17924
292;17926
293;17928
292;17930
292;17932
292;17934
291;17936
291;17938
292;17940
292;17942
292;17944
292;17946
292;17948
292;17950
292;17952
293;17954
292;17956
292;17958
292;17960
292;17963
292;17965
293;17967
292;17969
293;17971
293;17973
293;17975
293;17977
293;17979
293;17981
293;17983
293;17985
293;17987
293;17989
293;17991
293;17993
295;17995
293;17997
293;17999
293;18001
294;18003
294;18006
294;18008
294;18010
294;18012
295;18014
295;18016
295;18018
295;18020
295;18022
295;18024
295;18026
295;18028
295;18030
295;18032
295;18034
294;18036
296;18038
295;18040
292;18042
296;18044
295;18046
296;18048
296;18050
297;18052
296;18054
296;18056
296;18058
296;18060
296;18062
296;18064
296;18066
296;18068
296;18070
296;18072
296;18074
296;18076
296;18078
296;18080
297;18082
297;18084
297;18086
297;18088
297;18091
296;18093
296;18095
296;18097
297;18099
297;18101
297;18103
297;18105
297;18107
296;18109
297;18111
297;18113
297;18115
297;18117
297;18119
297;18121
297;18123
297;18125
297;18127
296;18129
297;18131
297;18134
297;18136
297;18138
296;18140
297;18142
297;18144
297;18146
297;18148
297;18150
295;18152
297;18154
297;18156
297;18158
297;18160
295;18162
298;18164
298;18166
297;18168
297;18170
298;18172
297;18174
298;18176
297;18178
298;18180
298;18182
298;18184
298;18186
298;18188
298;18190
298;18192
298;18194
298;18196
298;18198
298;18200
299;18202
298;18204
298;18206
299;18208
298;18210
299;18212
297;18214
298;18216
298;18219
299;18221
298;18223
298;18225
299;18227
299;18229
299;18231
298;18233
299;18235
299;18237
298;18239
299;18241
299;18243
299;18245
299;18247
299;18249
299;18251
299;18253
299;18255
299;18257
299;18259
297;18262
299;18264
298;18266
298;18268
300;18270
297;18272
299;18274
299;18276
299;18278
299;18280
299;18282
299;18284
300;18286
299;18288
299;18290
300;18292
299;18294
300;18296
299;18298
299;18300
299;18302
299;18304
300;18306
300;18308
299;18310
299;18312
300;18314
300;18316
300;18318
300;18320
300;18322
298;18324
299;18326
300;18328
300;18330
299;18332
299;18334
300;18336
300;18338
300;18340
300;18342
300;18344
299;18347
299;18349
300;18351
300;18353
300;18355
299;18357
299;18359
299;18361
299;18363
300;18365
300;18367
300;18369
298;18371
299;18373
299;18375
299;18377
300;18379
301;18381
300;18383
300;18385
299;18387
299;18390
299;18392
300;18394
299;18396
300;18398
300;18400
300;18402
299;18404
300;18406
299;18408
299;18410
300;18412
300;18414
300;18416
299;18418
300;18420
300;18422
300;18424
301;18426
303;18428
301;18430
301;18432
298;18434
301;18436
301;18438
302;18440
302;18442
302;18444
303;18446
303;18448
304;18450
303;18452
303;18454
305;18456
304;18458
306;18460
306;18462
306;18464
306;18466
306;18468
306;18470
306;18472
306;18475
306;18477
306;18479
304;18481
306;18483
305;18485
305;18487
305;18489
307;18491
304;18493
304;18495
304;18497
303;18499
302;18501
302;18503
302;18505
302;18507
302;18509
302;18511
301;18513
301;18515
301;18518
301;18520
301;18522
300;18524
300;18526
299;18528
300;18530
298;18532
299;18534
299;18536
300;18538
299;18540
299;18542
298;18544
299;18546
298;18548
298;18550
297;18552
297;18554
297;18556
297;18558
297;18560
297;18562
297;18564
297;18566
297;18568
296;18570
296;18572
295;18574
293;18576
290;18578
289;18580
287;18582
286;18584
285;18586
284;18588
282;18590
284;18592
286;18594
289;18596
294;18598
305;18600
308;18603
317;18605
326;18607
335;18609
344;18611
353;18613
360;18615
366;18617
369;18619
370;18621
368;18623
367;18625
364;18627
360;18629
357;18631
354;18633
351;18635
348;18637
345;18639
341;18641
337;18643
334;18646
332;18648
329;18650
326;18652
322;18654
320;18656
318;18658
315;18660
313;18662
311;18664
309;18666
307;18668
304;18670
302;18672
301;18674
298;18676
297;18678
296;18680
295;18682
294;18684
292;18686
291;18688
290;18690
289;18692
287;18694
287;18696
286;18698
284;18700
285;18702
284;18704
282;18706
282;18708
286;18710
282;18712
281;18714
280;18716
280;18718
280;18720
280;18722
279;18724
279;18726
279;18728
279;18731
278;18733
279;18735
278;18737
278;18739
278;18741
278;18743
278;18745
278;18747
278;18749
278;18751
279;18753
279;18755
279;18757
278;18759
278;18761
278;18763
279;18765
278;18767
278;18769
279;18771
279;18774
279;18776
280;18778
280;18780
280;18782
280;18784
279;18786
281;18788
281;18790
281;18792
281;18794
282;18796
281;18798
282;18800
282;18802
283;18804
283;18806
283;18808
283;18810
284;18812
284;18814
284;18816
284;18818
288;18820
285;18822
285;18824
285;18826
286;18828
286;18830
287;18832
286;18834
288;18836
288;18838
288;18840
288;18842
289;18844
289;18846
291;18848
291;18850
291;18852
292;18854
292;18856
292;18859
293;18861
294;18863
294;18865
296;18867
296;18869
297;18871
296;18873
297;18875
299;18877
299;18879
300;18881
300;18883
301;18885
302;18887
303;18889
303;18891
303;18893
304;18895
305;18897
306;18899
306;18902
306;18904
306;18906
308;18908
308;18910
308;18912
309;18914
309;18916
309;18918
309;18920
309;18922
309;18924
310;18926
309;18928
309;18930
309;18932
306;18934
308;18936
308;18938
307;18940
307;18942
306;18944
307;18946
306;18948
306;18950
305;18952
304;18954
303;18956
304;18958
302;18960
302;18962
302;18964
300;18966
301;18968
300;18970
298;18972
298;18974
299;18976
298;18978
297;18980
296;18982
296;18984
296;18987
295;18989
295;18991
295;18993
295;18995
295;18997
295;18999
294;19001
293;19003
292;19005
292;19007
293;19009
293;19011
293;19013
292;19015
292;19017
292;19019
292;19021
292;19023
292;19025
292;19027
292;19030
292;19032
292;19034
291;19036
292;19038
292;19040
292;19042
289;19044
292;19046
292;19048
292;19050
291;19052
292;19054
292;19056
292;19058
292;19060
292;19062
292;19064
292;19066
292;19068
292;19070
292;19072
292;19074
292;19076
292;19078
291;19080
292;19082
292;19084
292;19086
292;19088
292;19090
292;19092
291;19094
292;19096
291;19098
292;19100
292;19102
292;19104
293;19106
291;19108
291;19110
291;19112
291;19115
292;19117
292;19119
292;19121
292;19123
292;19125
292;19127
291;19129
292;19131
293;19133
292;19135
292;19137
292;19139
292;19141
292;19143
293;19145
292;19147
293;19149
293;19151
290;19153
293;19155
293;19158
292;19160
293;19162
292;19164
293;19166
293;19168
293;19170
293;19172
293;19174
293;19176
293;19178
293;19180
293;19182
294;19184
293;19186
293;19188
294;19190
294;19192
293;19194
294;19196
294;19198
294;19200
294;19202
294;19204
294;19206
294;19208
294;19210
294;19212
294;19214
296;19216
294;19218
294;19220
294;19222
294;19224
295;19226
295;19228
295;19230
295;19232
295;19234
294;19236
295;19238
295;19240
295;19243
295;19245
295;19247
294;19249
295;19251
295;19253
295;19255
295;19257
296;19259
295;19261
293;19263
295;19265
295;19267
295;19269
295;19271
294;19273
296;19275
296;19277
296;19279
295;19281
296;19283
296;19286
296;19288
296;19290
296;19292
296;19294
295;19296
295;19298
296;19300
296;19302
296;19304
296;19306
296;19308
295;19310
296;19312
296;19314
296;19316
296;19318
300;19320
296;19322
296;19324
296;19326
297;19328
297;19330
296;19332
297;19334
297;19336
297;19338
297;19340
296;19342
296;19344
296;19346
296;19348
297;19350
297;19352
297;19354
297;19356
297;19358
296;19360
296;19362
297;19364
297;19366
297;19368
297;19371
294;19373
297;19375
296;19377
296;19379
297;19381
294;19383
297;19385
297;19387
297;19389
297;19391
297;19393
296;19395
297;19397
297;19399
297;19401
297;19403
297;19405
296;19407
296;19409
297;19411
296;19414
297;19416
297;19418
295;19420
297;19422
297;19424
297;19426
296;19428
301;19430
297;19432
297;19434
298;19436
297;19438
297;19440
297;19442
297;19444
297;19446
298;19448
298;19450
297;19452
297;19454
297;19456
297;19458
297;19460
297;19462
297;19464
297;19466
297;19468
297;19470
297;19472
297;19474
297;19476
297;19478
297;19480
295;19482
297;19484
297;19486
297;19488
298;19490
296;19492
298;19494
298;19496
298;19499
297;19501
297;19503
297;19505
298;19507
298;19509
298;19511
298;19513
298;19515
297;19517
297;19519
298;19521
297;19523
297;19525
297;19527
297;19529
298;19531
297;19533
297;19535
297;19537
301;19539
298;19542
297;19544
297;19546
297;19548
297;19550
298;19552
297;19554
298;19556
298;19558
298;19560
297;19562
297;19564
298;19566
297;19568
297;19570
298;19572
297;19574
297;19576
297;19578
296;19580
297;19582
298;19584
297;19586
297;19588
298;19590
295;19592
297;19594
297;19596
297;19598
297;19600
296;19602
298;19604
298;19606
298;19608
298;19610
297;19612
297;19614
297;19616
299;19618
298;19620
298;19622
299;19624
299;19627
299;19629
298;19631
298;19633
299;19635
300;19637
299;19639
301;19641
301;19643
301;19645
302;19647
305;19649
303;19651
303;19653
303;19655
303;19657
303;19659
303;19661
304;19663
304;19665
304;19667
304;19670
304;19672
303;19674
304;19676
304;19678
304;19680
303;19682
303;19684
303;19686
302;19688
301;19690
301;19692
301;19694
301;19696
301;19698
300;19700
300;19702
299;19704
300;19706
299;19708
298;19710
301;19712
299;19714
298;19716
297;19718
297;19720
297;19722
298;19724
298;19726
297;19728
297;19730
297;19732
297;19734
296;19736
296;19738
295;19740
295;19742
296;19744
295;19746
294;19748
295;19750
295;19752
294;19755
295;19757
296;19759
294;19761
294;19763
293;19765
293;19767
291;19769
289;19771
287;19773
286;19775
284;19777
283;19779
281;19781
281;19783
281;19785
282;19787
285;19789
289;19791
294;19793
301;19795
310;19798
318;19800
327;19802
337;19804
346;19806
353;19808
359;19810
363;19812
364;19814
365;19816
363;19818
360;19820
357;19822
354;19824
351;19826
347;19828
344;19830
341;19832
338;19834
334;19836
331;19838
330;19840
327;19842
324;19844
320;19846
318;19848
315;19850
314;19852
311;19854
309;19856
306;19858
305;19860
303;19862
301;19864
299;19866
299;19868
296;19870
294;19872
293;19874
292;19876
290;19878
289;19880
288;19883
287;19885
286;19887
285;19889
285;19891
283;19893
282;19895
282;19897
281;19899
281;19901
281;19903
280;19905
279;19907
279;19909
279;19911
279;19913
279;19915
278;19917
278;19919
278;19921
277;19923
277;19926
277;19928
277;19930
277;19932
277;19934
279;19936
277;19938
277;19940
277;19942
277;19944
277;19946
277;19948
277;19950
277;19952
277;19954
278;19956
277;19958
278;19960
278;19962
278;19964
278;19966
279;19968
278;19970
278;19972
279;19974
278;19976
280;19978
279;19980
280;19982
280;19984
280;19986
279;19988
280;19990
281;19992
281;19994
281;19996
281;19998
281;20000
281;20002
282;20004
282;20006
283;20008
283;20011
284;20013
284;20015
284;20017
285;20019
285;20021
285;20023
287;20025
287;20027
287;20029
287;20031
288;20033
288;20035
289;20037
289;20039
290;20041
290;20043
291;20045
291;20047
292;20049
292;20051
293;20054
293;20056
294;20058
295;20060
295;20062
296;20064
297;20066
297;20068
298;20070
299;20072
300;20074
300;20076
301;20078
301;20080
302;20082
302;20084
303;20086
304;20088
305;20090
302;20092
306;20094
306;20096
307;20098
307;20100
307;20102
308;20104
308;20106
308;20108
309;20110
308;20112
308;20114
310;20116
309;20118
310;20120
309;20122
310;20124
309;20126
309;20128
308;20130
307;20132
308;20134
307;20136
307;20139
306;20141
306;20143
305;20145
305;20147
304;20149
304;20151
303;20153
302;20155
301;20157
301;20159
300;20161
300;20163
300;20165
299;20167
299;20169
297;20171
296;20173
296;20175
295;20177
296;20179
295;20182
295;20184
295;20186
294;20188
294;20190
293;20192
293;20194
292;20196
293;20198
293;20200
290;20202
292;20204
292;20206
291;20208
292;20210
290;20212
292;20214
292;20216
291;20218
291;20220
291;20222
291;20224
291;20226
292;20228
292;20230
292;20232
292;20234
292;20236
292;20238
292;20240
291;20242
292;20244
292;20246
292;20248
292;20250
292;20252
292;20254
292;20256
291;20258
292;20260
292;20262
290;20264
292;20267
292;20269
291;20271
292;20273
291;20275
292;20277
292;20279
292;20281
291;20283
292;20285
292;20287
291;20289
292;20291
292;20293
292;20295
292;20297
292;20299
293;20301
293;20303
292;20305
292;20307
292;20310
289;20312
292;20314
292;20316
291;20318
292;20320
292;20322
292;20324
293;20326
292;20328
292;20330
293;20332
292;20334
293;20336
293;20338
292;20340
293;20342
292;20344
292;20346
292;20348
293;20350
292;20352
293;20354
293;20356
293;20358
293;20360
292;20362
292;20364
292;20366
293;20368
293;20370
293;20372
290;20374
293;20376
293;20378
293;20380
293;20382
293;20384
293;20386
294;20388
293;20390
294;20392
294;20395
294;20397
294;20399
294;20401
294;20403
294;20405
294;20407
293;20409
294;20411
293;20413
293;20415
294;20417
294;20419
292;20421
294;20423
294;20425
295;20427
294;20429
296;20431
295;20433
295;20435
294;20438
295;20440
295;20442
295;20444
294;20446
295;20448
295;20450
295;20452
295;20454
295;20456
295;20458
295;20460
294;20462
295;20464
295;20466
295;20468
295;20470
296;20472
296;20474
295;20476
297;20478
295;20480
295;20482
293;20484
295;20486
296;20488
295;20490
295;20492
295;20494
296;20496
296;20498
296;20500
296;20502
296;20504
295;20506
296;20508
296;20510
296;20512
296;20514
296;20516
296;20518
296;20520
296;20523
296;20525
296;20527
296;20529
294;20531
296;20533
295;20535
296;20537
295;20539
299;20541
296;20543
296;20545
296;20547
297;20549
296;20551
295;20553
296;20555
296;20557
296;20559
296;20561
297;20563
296;20566
297;20568
296;20570
296;20572
297;20574
297;20576
296;20578
296;20580
296;20582
296;20584
296;20586
298;20588
297;20590
297;20592
297;20594
297;20596
296;20598
295;20600
297;20602
296;20604
297;20606
296;20608
296;20610
296;20612
296;20614
296;20616
296;20618
296;20620
296;20622
296;20624
296;20626
297;20628
296;20630
296;20632
296;20634
296;20636
296;20638
294;20640
296;20642
296;20644
296;20646
296;20648
300;20651
296;20653
296;20655
296;20657
295;20659
296;20661
296;20663
296;20665
296;20667
296;20669
296;20671
296;20673
296;20675
296;20677
296;20679
296;20681
296;20683
296;20685
296;20687
296;20689
296;20691
296;20694
296;20696
297;20698
296;20700
296;20702
296;20704
297;20706
295;20708
295;20710
296;20712
297;20714
296;20716
296;20718
296;20720
296;20722
296;20724
295;20726
296;20728
296;20730
296;20732
296;20734
296;20736
296;20738
296;20740
296;20742
296;20744
297;20746
297;20748
296;20750
296;20752
296;20754
297;20756
296;20758
300;20760
297;20762
297;20764
296;20766
297;20768
297;20770
297;20772
296;20774
297;20776
297;20779
297;20781
296;20783
297;20785
297;20787
297;20789
296;20791
298;20793
298;20795
297;20797
297;20799
298;20801
298;20803
299;20805
300;20807
299;20809
299;20811
299;20813
299;20815
301;20817
301;20819
301;20822
302;20824
302;20826
302;20828
302;20830
302;20832
302;20834
303;20836
302;20838
303;20840
303;20842
303;20844
302;20846
303;20848
303;20850
301;20852
302;20854
302;20856
301;20858
301;20860
300;20862
300;20864
300;20866
300;20868
303;20870
300;20872
299;20874
299;20876
298;20878
299;20880
298;20882
297;20884
298;20886
298;20888
297;20890
297;20892
296;20894
296;20896
296;20898
295;20900
296;20902
296;20904
296;20907
296;20909
296;20911
295;20913
295;20915
295;20917
295;20919
295;20921
294;20923
294;20925
294;20927
294;20929
294;20931
294;20933
293;20935
292;20937
290;20939
288;20941
286;20943
284;20945
283;20947
281;20950
281;20952
280;20954
282;20956
284;20958
287;20960
293;20962
299;20964
307;20966
316;20968
325;20970
335;20972
344;20974
352;20976
359;20978
364;20980
367;20982
364;20984
366;20986
363;20988
360;20990
359;20992
356;20994
352;20996
350;20998
347;21000
342;21002
339;21004
337;21006
333;21008
330;21010
327;21012
324;21014
321;21016
318;21018
316;21020
313;21022
311;21024
310;21026
308;21028
305;21030
303;21032
301;21035
299;21037
297;21039
296;21041
295;21043
293;21045
293;21047
290;21049
289;21051
288;21053
287;21055
287;21057
285;21059
285;21061
283;21063
283;21065
282;21067
282;21069
280;21071
281;21073
280;21075
280;21078
279;21080
279;21082
278;21084
278;21086
278;21088
278;21090
278;21092
275;21094
277;21096
278;21098
277;21100
276;21102
277;21104
277;21106
277;21108
277;21110
277;21112
276;21114
277;21116
277;21118
276;21120
277;21122
277;21124
278;21126
277;21128
277;21130
278;21132
277;21134
279;21136
278;21138
278;21140
278;21142
279;21144
279;21146
279;21148
279;21150
280;21152
280;21154
281;21156
280;21158
280;21160
280;21163
281;21165
281;21167
282;21169
282;21171
283;21173
282;21175
283;21177
283;21179
283;21181
284;21183
285;21185
285;21187
285;21189
285;21191
286;21193
286;21195
286;21197
287;21199
287;21201
285;21203
288;21206
289;21208
289;21210
289;21212
290;21214
291;21216
291;21218
291;21220
292;21222
292;21224
293;21226
294;21228
295;21230
295;21232
296;21234
296;21236
297;21238
298;21240
299;21242
299;21244
300;21246
300;21248
301;21250
302;21252
302;21254
303;21256
304;21258
304;21260
305;21262
305;21264
308;21266
306;21268
306;21270
308;21272
308;21274
308;21276
309;21278
309;21280
309;21282
308;21284
309;21286
309;21288
309;21291
309;21293
309;21295
309;21297
308;21299
308;21301
308;21303
307;21305
307;21307
307;21309
306;21311
303;21313
304;21315
303;21317
304;21319
302;21321
302;21323
302;21325
301;21327
301;21329
300;21331
299;21334
298;21336
298;21338
298;21340
297;21342
297;21344
296;21346
296;21348
294;21350
294;21352
293;21354
294;21356
293;21358
292;21360
293;21362
292;21364
292;21366
292;21368
295;21370
291;21372
291;21374
292;21376
290;21378
290;21380
290;21382
291;21384
291;21386
291;21388
291;21390
291;21392
290;21394
291;21396
291;21398
291;21400
291;21402
291;21404
291;21406
290;21408
290;21410
290;21412
291;21414
291;21416
291;21419
291;21421
289;21423
292;21425
291;21427
292;21429
291;21431
290;21433
292;21435
292;21437
292;21439
292;21441
292;21443
291;21445
291;21447
292;21449
292;21451
292;21453
291;21455
292;21457
291;21459
292;21462
292;21464
292;21466
292;21468
291;21470
292;21472
292;21474
292;21476
291;21478
295;21480
292;21482
292;21484
292;21486
292;21488
291;21490
292;21492
292;21494
292;21496
292;21498
292;21500
293;21502
292;21504
293;21506
293;21508
292;21510
293;21512
293;21514
292;21516
292;21518
293;21520
293;21522
292;21524
293;21526
293;21528
293;21530
290;21532
293;21534
293;21536
293;21538
293;21540
290;21542
293;21544
294;21547
293;21549
293;21551
294;21553
293;21555
294;21557
294;21559
294;21561
294;21563
294;21565
293;21567
294;21569
294;21571
294;21573
294;21575
294;21577
293;21579
295;21581
295;21583
294;21585
294;21587
298;21590
295;21592
295;21594
295;21596
295;21598
295;21600
295;21602
294;21604
295;21606
295;21608
295;21610
294;21612
295;21614
294;21616
294;21618
295;21620
295;21622
296;21624
295;21626
295;21628
295;21630
296;21632
295;21634
295;21636
296;21638
296;21640
294;21642
296;21644
296;21646
296;21648
296;21650
294;21652
296;21654
296;21656
295;21658
297;21660
297;21662
297;21664
297;21666
297;21668
297;21670
297;21672
297;21675
297;21677
297;21679
296;21681
296;21683
297;21685
297;21687
296;21689
296;21691
297;21693
297;21695
297;21697
300;21699
297;21701
297;21703
296;21705
297;21707
297;21709
298;21711
297;21713
297;21715
298;21718
298;21720
297;21722
297;21724
297;21726
297;21728
298;21730
298;21732
298;21734
297;21736
297;21738
297;21740
297;21742
297;21744
298;21746
298;21748
298;21750
297;21752
297;21754
297;21756
298;21758
297;21760
299;21762
298;21764
298;21766
297;21768
297;21770
297;21772
298;21774
297;21776
298;21778
298;21780
298;21782
298;21784
298;21786
297;21788
298;21790
297;21792
298;21794
298;21796
297;21798
297;21800
298;21803
298;21805
298;21807
300;21809
298;21811
298;21813
298;21815
298;21817
298;21819
298;21821
298;21823
298;21825
298;21827
298;21829
298;21831
297;21833
298;21835
297;21837
298;21839
298;21841
298;21843
298;21846
298;21848
297;21850
298;21852
297;21854
298;21856
298;21858
298;21860
297;21862
297;21864
297;21866
298;21868
298;21870
298;21872
298;21874
299;21876
298;21878
298;21880
297;21882
297;21884
297;21886
298;21888
298;21890
298;21892
297;21894
297;21896
298;21898
298;21900
298;21902
298;21904
298;21906
297;21908
298;21910
297;21912
298;21914
297;21916
299;21918
298;21920
298;21922
298;21924
298;21926
297;21928
297;21931
297;21933
298;21935
297;21937
298;21939
297;21941
298;21943
297;21945
297;21947
298;21949
298;21951
298;21953
298;21955
297;21957
297;21959
297;21961
297;21963
298;21965
298;21967
298;21969
297;21971
297;21974
297;21976
297;21978
297;21980
298;21982
298;21984
299;21986
297;21988
297;21990
298;21992
297;21994
297;21996
297;21998
297;22000
298;22002
297;22004
298;22006
298;22008
298;22010
298;22012
298;22014
298;22016
299;22018
299;22020
298;22022
298;22024
300;22026
301;22028
300;22030
300;22032
300;22034
301;22036
301;22038
302;22040
302;22042
303;22044
303;22046
303;22048
303;22050
303;22052
304;22054
304;22056
304;22059
304;22061
304;22063
304;22065
304;22067
303;22069
303;22071
303;22073
303;22075
303;22077
302;22079
301;22081
302;22083
301;22085
301;22087
300;22089
300;22091
300;22093
300;22095
299;22097
299;22099
299;22102
299;22104
298;22106
299;22108
298;22110
298;22112
298;22114
298;22116
298;22118
298;22120
297;22122
297;22124
297;22126
297;22128
297;22130
296;22132
296;22134
296;22136
296;22138
296;22140
293;22142
295;22144
295;22146
295;22148
295;22150
295;22152
295;22154
294;22156
293;22158
290;22160
288;22162
287;22164
285;22166
283;22168
282;22170
281;22172
281;22174
281;22176
283;22178
287;22180
292;22182
298;22184
306;22187
315;22189
324;22191
333;22193
343;22195
352;22197
358;22199
364;22201
368;22203
367;22205
367;22207
365;22209
361;22211
359;22213
355;22215
352;22217
349;22219
346;22221
342;22223
338;22225
335;22227
332;22230
329;22232
326;22234
324;22236
320;22238
318;22240
315;22242
313;22244
310;22246
309;22248
307;22250
302;22252
303;22254
300;22256
298;22258
296;22260
293;22262
294;22264
293;22266
292;22268
290;22270
289;22272
288;22274
286;22276
285;22278
285;22280
284;22282
284;22284
283;22286
282;22288
280;22290
281;22292
280;22294
280;22296
279;22298
279;22300
279;22302
279;22304
277;22306
277;22308
277;22310
277;22312
275;22315
276;22317
276;22319
276;22321
276;22323
276;22325
276;22327
276;22329
276;22331
276;22333
277;22335
276;22337
276;22339
276;22341
276;22343
277;22345
276;22347
276;22349
277;22351
277;22353
277;22355
277;22358
277;22360
275;22362
277;22364
278;22366
278;22368
279;22370
277;22372
279;22374
279;22376
279;22378
279;22380
279;22382
280;22384
280;22386
281;22388
281;22390
282;22392
282;22394
282;22396
282;22398
282;22400
282;22402
283;22404
283;22406
284;22408
284;22410
284;22412
285;22414
286;22416
286;22418
286;22420
287;22422
284;22424
288;22426
288;22428
288;22430
288;22432
289;22434
290;22436
290;22438
291;22440
291;22443
292;22445
293;22447
292;22449
294;22451
294;22453
295;22455
296;22457
296;22459
298;22461
298;22463
299;22465
299;22467
300;22469
298;22471
302;22473
302;22475
302;22477
303;22479
304;22481
304;22483
305;22486
306;22488
307;22490
306;22492
307;22494
308;22496
308;22498
309;22500
309;22502
310;22504
309;22506
309;22508
310;22510
310;22512
310;22514
310;22516
308;22518
309;22520
309;22522
308;22524
308;22526
308;22528
308;22530
307;22532
304;22534
306;22536
305;22538
304;22540
304;22542
304;22544
303;22546
303;22548
302;22550
301;22552
301;22554
300;22556
299;22558
299;22560
298;22562
298;22564
296;22566
297;22568
296;22571
295;22573
294;22575
295;22577
294;22579
292;22581
293;22583
293;22585
292;22587
292;22589
295;22591
293;22593
292;22595
292;22597
292;22599
292;22601
292;22603
292;22605
292;22607
292;22609
292;22611
291;22614
291;22616
292;22618
291;22620
291;22622
292;22624
292;22626
291;22628
292;22630
292;22632
292;22634
291;22636
294;22638
292;22640
292;22642
292;22644
292;22646
292;22648
292;22650
292;22652
292;22654
292;22656
292;22658
292;22660
292;22662
293;22664
292;22666
293;22668
293;22670
293;22672
293;22674
293;22676
292;22678
293;22680
293;22682
293;22684
293;22686
293;22688
291;22690
293;22692
293;22694
292;22696
294;22699
297;22701
293;22703
293;22705
293;22707
292;22709
292;22711
293;22713
293;22715
293;22717
293;22719
294;22721
293;22723
294;22725
294;22727
293;22729
293;22731
294;22733
294;22735
294;22737
294;22739
293;22742
294;22744
294;22746
295;22748
294;22750
294;22752
294;22754
294;22756
293;22758
294;22760
295;22762
294;22764
294;22766
294;22768
294;22770
294;22772
295;22774
294;22776
294;22778
295;22780
295;22782
295;22784
295;22786
294;22788
294;22790
294;22792
294;22794
295;22796
295;22798
293;22800
295;22802
295;22804
295;22806
295;22808
299;22810
295;22812
295;22814
295;22816
295;22818
296;22820
296;22822
295;22824
296;22827
296;22829
295;22831
295;22833
295;22835
295;22837
297;22839
296;22841
297;22843
297;22845
297;22847
297;22849
298;22851
298;22853
297;22855
299;22857
298;22859
299;22861
298;22863
299;22865
299;22867
299;22870
301;22872
301;22874
302;22876
302;22878
301;22880
302;22882
302;22884
302;22886
303;22888
303;22890
303;22892
303;22894
303;22896
303;22898
302;22900
302;22902
302;22904
302;22906
301;22908
301;22910
301;22912
300;22914
300;22916
301;22918
303;22920
300;22922
299;22924
299;22926
299;22928
298;22930
298;22932
298;22934
298;22936
298;22938
297;22940
296;22942
296;22944
297;22946
296;22948
296;22950
296;22952
296;22955
296;22957
296;22959
295;22961
295;22963
296;22965
296;22967
295;22969
295;22971
295;22973
295;22975
295;22977
294;22979
295;22981
295;22983
295;22985
295;22987
294;22989
294;22991
294;22993
293;22995
291;22998
290;23000
288;23002
287;23004
284;23006
283;23008
282;23010
282;23012
282;23014
283;23016
285;23018
289;23020
294;23022
301;23024
309;23026
318;23028
328;23030
337;23032
345;23034
353;23036
359;23038
362;23040
366;23042
365;23044
364;23046
362;23048
359;23050
355;23052
352;23054
348;23056
345;23058
342;23060
340;23062
337;23064
333;23066
331;23068
327;23070
325;23072
322;23074
320;23076
317;23078
315;23080
312;23083
311;23085
308;23087
306;23089
305;23091
303;23093
301;23095
299;23097
299;23099
296;23101
294;23103
293;23105
292;23107
291;23109
290;23111
289;23113
288;23115
287;23117
286;23119
286;23121
285;23123
284;23126
284;23128
283;23130
283;23132
282;23134
281;23136
281;23138
281;23140
280;23142
279;23144
279;23146
279;23148
279;23150
279;23152
278;23154
279;23156
279;23158
279;23160
278;23162
279;23164
278;23166
279;23168
279;23170
279;23172
279;23174
278;23176
278;23178
279;23180
279;23182
279;23184
280;23186
280;23188
280;23190
280;23192
280;23194
280;23196
280;23198
281;23200
281;23202
281;23204
282;23206
281;23208
280;23211
281;23213
282;23215
282;23217
282;23219
283;23221
284;23223
283;23225
285;23227
284;23229
284;23231
285;23233
285;23235
286;23237
286;23239
286;23241
286;23243
286;23245
287;23247
287;23249
288;23251
286;23254
288;23256
290;23258
289;23260
290;23262
290;23264
292;23266
292;23268
292;23270
293;23272
294;23274
294;23276
294;23278
296;23280
296;23282
297;23284
297;23286
299;23288
299;23290
300;23292
300;23294
301;23296
302;23298
302;23300
304;23302
304;23304
304;23306
305;23308
306;23310
307;23312
308;23314
310;23316
308;23318
309;23320
309;23322
309;23324
311;23326
311;23328
311;23330
311;23332
312;23334
312;23336
312;23339
312;23341
311;23343
311;23345
311;23347
311;23349
310;23351
310;23353
309;23355
309;23357
309;23359
308;23361
304;23363
306;23365
305;23367
304;23369
305;23371
303;23373
303;23375
302;23377
301;23379
300;23382
300;23384
299;23386
298;23388
298;23390
297;23392
297;23394
295;23396
296;23398
295;23400
295;23402
294;23404
294;23406
294;23408
291;23410
293;23412
293;23414
293;23416
292;23418
295;23420
292;23422
292;23424
293;23426
291;23428
291;23430
291;23432
290;23434
291;23436
291;23438
291;23440
290;23442
291;23444
291;23446
290;23448
291;23450
291;23452
291;23454
291;23456
291;23458
291;23460
291;23462
291;23464
291;23467
291;23469
292;23471
289;23473
291;23475
291;23477
291;23479
291;23481
290;23483
292;23485
292;23487
292;23489
291;23491
292;23493
292;23495
292;23497
293;23499
293;23501
293;23503
292;23505
292;23507
293;23510
293;23512
293;23514
293;23516
293;23518
292;23520
293;23522
292;23524
292;23526
292;23528
297;23530
293;23532
293;23534
293;23536
292;23538
293;23540
293;23542
293;23544
294;23546
294;23548
294;23550
294;23552
293;23554
293;23556
294;23558
294;23560
294;23562
294;23564
294;23566
294;23568
294;23570
294;23572
295;23574
295;23576
295;23578
295;23580
292;23582
295;23584
295;23586
294;23588
295;23590
293;23592
295;23595
295;23597
295;23599
295;23601
295;23603
295;23605
296;23607
296;23609
296;23611
296;23613
295;23615
296;23617
296;23619
297;23621
296;23623
297;23625
297;23627
296;23629
296;23631
296;23633
296;23635
297;23638
301;23640
298;23642
298;23644
298;23646
298;23648
299;23650
299;23652
300;23654
300;23656
301;23658
301;23660
301;23662
301;23664
302;23666
303;23668
303;23670
303;23672
304;23674
304;23676
304;23678
304;23680
304;23682
304;23684
304;23686
305;23688
305;23690
302;23692
304;23694
305;23696
304;23698
303;23700
301;23702
304;23704
303;23706
303;23708
302;23710
302;23712
302;23714
301;23716
302;23718
301;23720
301;23723
301;23725
300;23727
300;23729
300;23731
299;23733
300;23735
300;23737
299;23739
300;23741
300;23743
299;23745
300;23747
302;23749
299;23751
299;23753
298;23755
298;23757
298;23759
298;23761
298;23763
299;23766
298;23768
298;23770
297;23772
297;23774
297;23776
297;23778
297;23780
298;23782
298;23784
297;23786
297;23788
297;23790
296;23792
295;23794
294;23796
292;23798
290;23800
288;23802
287;23804
286;23806
285;23808
285;23810
286;23812
288;23814
291;23816
296;23818
300;23820
308;23822
316;23824
325;23826
334;23828
342;23830
350;23832
356;23834
360;23836
365;23838
364;23840
363;23842
362;23844
358;23846
355;23848
352;23851
348;23853
345;23855
342;23857
341;23859
336;23861
333;23863
329;23865
327;23867
324;23869
322;23871
319;23873
317;23875
315;23877
313;23879
310;23881
309;23883
307;23885
305;23887
304;23889
302;23891
301;23894
299;23896
298;23898
297;23900
296;23902
294;23904
294;23906
293;23908
292;23910
291;23912
291;23914
289;23916
289;23918
288;23920
288;23922
287;23924
287;23926
286;23928
285;23930
286;23932
284;23934
284;23936
285;23938
285;23940
284;23942
283;23944
283;23946
283;23948
283;23950
283;23952
283;23954
283;23956
282;23958
282;23960
283;23962
283;23964
283;23966
284;23968
283;23970
283;23972
283;23974
282;23976
282;23979
282;23981
283;23983
283;23985
283;23987
284;23989
284;23991
284;23993
284;23995
283;23997
284;23999
284;24001
284;24003
284;24005
285;24007
285;24009
284;24011
285;24013
286;24015
286;24017
286;24019
286;24022
286;24024
287;24026
287;24028
287;24030
288;24032
288;24034
290;24036
288;24038
288;24040
290;24042
289;24044
290;24046
291;24048
291;24050
292;24052
292;24054
293;24056
293;24058
293;24060
294;24062
295;24064
295;24066
295;24068
295;24070
295;24072
296;24074
298;24076
300;24078
299;24080
299;24082
300;24084
300;24086
301;24088
302;24090
302;24092
303;24094
304;24096
305;24098
304;24100
305;24102
306;24104
307;24107
307;24109
308;24111
309;24113
310;24115
310;24117
310;24119
310;24121
311;24123
312;24125
312;24127
313;24129
313;24131
312;24133
313;24135
313;24137
312;24139
312;24141
313;24143
312;24145
312;24147
310;24150
311;24152
309;24154
310;24156
309;24158
308;24160
308;24162
307;24164
307;24166
305;24168
305;24170
304;24172
304;24174
303;24176
302;24178
301;24180
301;24182
299;24184
299;24186
299;24188
298;24190
298;24192
297;24194
296;24196
297;24198
296;24200
296;24202
295;24204
295;24206
294;24208
294;24210
294;24212
293;24214
293;24216
293;24218
293;24220
292;24222
293;24224
292;24226
292;24228
292;24230
292;24232
292;24235
292;24237
292;24239
292;24241
291;24243
291;24245
291;24247
291;24249
292;24251
292;24253
290;24255
291;24257
291;24259
291;24261
291;24263
291;24265
292;24267
292;24269
292;24271
292;24273
292;24275
292;24278
292;24280
292;24282
292;24284
293;24286
292;24288
293;24290
292;24292
293;24294
292;24296
293;24298
293;24300
291;24302
293;24304
294;24306
294;24308
293;24310
291;24312
294;24314
294;24316
294;24318
294;24320
294;24322
294;24324
294;24326
294;24328
295;24330
294;24332
295;24334
294;24336
294;24338
295;24340
295;24342
295;24344
295;24346
296;24348
296;24350
296;24352
296;24354
296;24356
296;24358
296;24360
296;24363
294;24365
296;24367
296;24369
296;24371
296;24373
297;24375
296;24377
297;24379
297;24381
297;24383
297;24385
296;24387
297;24389
298;24391
297;24393
297;24395
297;24397
298;24399
297;24401
298;24403
298;24406
298;24408
298;24410
296;24412
298;24414
298;24416
297;24418
298;24420
298;24422
298;24424
299;24426
299;24428
299;24430
299;24432
299;24434
299;24436
300;24438
300;24440
300;24442
300;24444
300;24446
300;24448
301;24450
301;24452
302;24454
303;24456
303;24458
303;24460
304;24462
303;24464
303;24466
304;24468
305;24470
305;24472
303;24474
304;24476
304;24478
304;24480
305;24482
305;24484
305;24486
305;24488
305;24491
304;24493
304;24495
304;24497
304;24499
303;24501
303;24503
303;24505
302;24507
301;24509
302;24511
301;24513
300;24515
301;24517
301;24519
298;24521
300;24523
300;24525
299;24527
300;24529
302;24531
299;24534
299;24536
299;24538
299;24540
298;24542
299;24544
299;24546
298;24548
298;24550
298;24552
298;24554
298;24556
298;24558
297;24560
297;24562
297;24564
297;24566
296;24568
296;24570
297;24572
297;24574
296;24576
297;24578
297;24580
297;24582
293;24584
296;24586
295;24588
294;24590
292;24592
290;24594
289;24596
288;24598
286;24600
285;24602
286;24604
286;24606
287;24608
290;24610
294;24612
300;24614
306;24616
313;24619
320;24621
328;24623
337;24625
344;24627
350;24629
354;24631
358;24633
360;24635
360;24637
358;24639
359;24641
352;24643
349;24645
345;24647
342;24649
340;24651
337;24653
333;24655
330;24657
327;24659
324;24662
322;24664
318;24666
317;24668
315;24670
313;24672
311;24674
309;24676
307;24678
305;24680
303;24682
301;24684
300;24686
300;24688
297;24690
296;24692
295;24694
293;24696
292;24698
291;24700
291;24702
290;24704
289;24706
289;24708
288;24710
287;24712
286;24714
285;24716
285;24718
285;24720
285;24722
284;24724
283;24726
282;24728
282;24730
282;24732
282;24734
282;24736
282;24738
280;24740
281;24742
280;24744
280;24747
281;24749
284;24751
280;24753
280;24755
281;24757
280;24759
280;24761
281;24763
280;24765
281;24767
281;24769
281;24771
281;24773
281;24775
280;24777
280;24779
280;24781
281;24783
281;24785
281;24787
281;24790
282;24792
282;24794
282;24796
283;24798
282;24800
283;24802
283;24804
283;24806
283;24808
284;24810
284;24812
284;24814
284;24816
285;24818
285;24820
284;24822
285;24824
286;24826
286;24828
286;24830
286;24832
287;24834
287;24836
288;24838
288;24840
288;24842
288;24844
289;24846
290;24848
289;24850
290;24852
291;24854
291;24856
292;24858
296;24860
293;24862
293;24864
294;24866
294;24868
294;24870
296;24872
297;24875
297;24877
298;24879
298;24881
299;24883
299;24885
300;24887
300;24889
301;24891
302;24893
303;24895
303;24897
303;24899
304;24901
304;24903
304;24905
306;24907
306;24909
307;24911
306;24913
308;24915
308;24918
308;24920
308;24922
308;24924
308;24926
309;24928
309;24930
309;24932
308;24934
308;24936
308;24938
308;24940
307;24942
307;24944
306;24946
306;24948
306;24950
304;24952
304;24954
304;24956
303;24958
302;24960
302;24962
301;24964
300;24966
301;24968
302;24970
299;24972
298;24974
297;24976
296;24978
296;24980
296;24982
295;24984
294;24986
294;24988
293;24990
292;24992
292;24994
292;24996
291;24998
291;25000
291;25003
291;25005
291;25007
289;25009
289;25011
289;25013
289;25015
289;25017
289;25019
288;25021
288;25023
289;25025
289;25027
288;25029
288;25031
288;25033
289;25035
289;25037
288;25039
288;25041
288;25043
288;25046
288;25048
289;25050
289;25052
288;25054
288;25056
288;25058
288;25060
288;25062
289;25064
289;25066
289;25068
289;25070
289;25072
289;25074
289;25076
289;25078
290;25080
290;25082
288;25084
290;25086
290;25088
290;25090
289;25092
290;25094
290;25096
290;25098
290;25100
290;25102
290;25104
291;25106
291;25108
291;25110
291;25112
291;25114
291;25116
291;25118
291;25120
291;25122
291;25124
291;25126
291;25128
291;25131
291;25133
291;25135
291;25137
292;25139
292;25141
292;25143
292;25145
293;25147
292;25149
292;25151
292;25153
292;25155
292;25157
292;25159
292;25161
292;25163
292;25165
292;25167
292;25169
293;25171
293;25174
293;25176
293;25178
293;25180
293;25182
293;25184
293;25186
293;25188
293;25190
293;25192
290;25194
293;25196
293;25198
293;25200
293;25202
293;25204
294;25206
294;25208
294;25210
294;25212
294;25214
294;25216
294;25218
294;25220
294;25222
294;25224
295;25226
295;25228
294;25230
295;25232
294;25234
295;25236
295;25238
295;25240
295;25242
296;25244
295;25246
296;25248
296;25250
297;25252
297;25254
299;25256
298;25259
298;25261
298;25263
298;25265
299;25267
299;25269
300;25271
301;25273
301;25275
300;25277
300;25279
301;25281
301;25283
302;25285
302;25287
301;25289
302;25291
301;25293
301;25295
301;25297
301;25299
301;25302
298;25304
300;25306
299;25308
300;25310
299;25312
299;25314
299;25316
298;25318
298;25320
298;25322
297;25324
297;25326
296;25328
297;25330
297;25332
296;25334
295;25336
296;25338
295;25340
295;25342
295;25344
295;25346
295;25348
294;25350
294;25352
293;25354
294;25356
293;25358
292;25360
293;25362
293;25364
294;25366
292;25368
293;25370
292;25372
292;25374
292;25376
292;25378
292;25380
291;25382
292;25384
291;25387
292;25389
292;25391
291;25393
291;25395
291;25397
290;25399
289;25401
288;25403
286;25405
285;25407
284;25409
283;25411
279;25413
281;25415
281;25417
282;25419
284;25421
286;25423
292;25425
298;25427
305;25430
312;25432
320;25434
328;25436
335;25438
343;25440
349;25442
354;25444
356;25446
357;25448
355;25450
353;25452
350;25454
348;25456
344;25458
339;25460
337;25462
335;25464
331;25466
328;25468
330;25470
324;25472
321;25474
318;25476
315;25478
313;25480
311;25482
308;25484
307;25486
305;25488
